300.00000,896.82495
302.00000,779.14063
304.00000,684.15540
306.00000,579.68542
308.00000,492.82416
310.00000,414.28094
312.00000,324.26828
314.00000,268.28326
316.00000,246.94005
318.00000,234.93831
320.00000,215.05333
322.00000,196.00333
324.00000,196.61891
326.00000,184.18578
328.00000,155.76974
330.00000,131.85332
332.00000,102.08720
334.00000,98.47626
336.00000,101.70402
338.00000,89.26241
340.00000,84.81398
342.00000,102.48896
344.00000,151.31128
346.00000,217.06972
348.00000,288.67386
350.00000,390.38492
352.00000,491.30084
354.00000,567.56177
356.00000,598.07025
358.00000,565.37122
360.00000,518.57300
362.00000,464.52426
364.00000,404.20288
366.00000,343.86215
368.00000,268.39926
370.00000,213.64502
372.00000,177.20074
374.00000,139.90981
376.00000,120.67868
378.00000,140.41568
380.00000,139.11302
382.00000,105.81284
384.00000,88.42280
386.00000,64.58268
388.00000,74.01620
390.00000,83.13045
392.00000,53.76895
394.00000,40.87268
396.00000,33.61761
398.00000,27.76751
400.00000,30.53445
402.00000,51.17730
404.00000,93.86229
406.00000,87.82812
408.00000,54.98217
410.00000,52.53785
412.00000,51.87823
414.00000,84.53063
416.00000,69.60860
418.00000,23.24950
420.00000,64.71664
422.00000,71.31751
424.00000,71.13635
426.00000,78.99121
428.00000,66.24313
430.00000,59.53196
432.00000,60.30397
434.00000,60.15115
436.00000,71.16413
438.00000,95.62611
440.00000,58.43254
442.00000,49.70483
444.00000,70.62601
446.00000,71.08932
448.00000,144.05064
450.00000,178.19391
452.00000,177.56058
454.00000,204.81087
456.00000,239.53961
458.00000,253.97784
460.00000,252.01604
462.00000,246.94101
464.00000,238.42192
466.00000,215.28450
468.00000,196.83081
470.00000,178.54051
472.00000,151.46928
474.00000,130.40492
476.00000,117.87043
478.00000,110.94965
480.00000,115.96142
482.00000,128.05753
484.00000,110.52166
486.00000,105.82462
488.00000,112.04462
490.00000,106.12304
492.00000,103.23755
494.00000,84.76141
496.00000,69.81126
498.00000,76.57614
500.00000,96.39130
502.00000,115.86673
504.00000,94.94604
506.00000,66.87096
508.00000,71.62272
510.00000,67.62469
512.00000,62.05253
514.00000,60.83192
516.00000,62.69196
518.00000,72.47728
520.00000,100.56625
522.00000,121.29896
524.00000,155.46283
526.00000,224.37552
528.00000,281.87259
530.00000,353.34879
532.00000,408.80347
534.00000,424.72992
536.00000,426.15964
538.00000,403.05322
540.00000,375.44138
542.00000,341.97885
544.00000,279.44934
546.00000,196.10909
548.00000,147.52666
550.00000,139.60437
552.00000,151.63634
554.00000,171.80687
556.00000,173.91309
558.00000,177.03104
560.00000,188.90222
562.00000,217.13013
564.00000,302.73218
566.00000,369.73956
568.00000,412.01898
570.00000,448.94324
572.00000,458.03595
574.00000,474.73929
576.00000,463.19128
578.00000,417.19235
580.00000,375.17218
582.00000,328.36884
584.00000,288.66003
586.00000,273.13242
588.00000,275.14841
590.00000,261.49002
592.00000,221.40620
594.00000,193.60211
596.00000,184.14272
598.00000,159.78976
600.00000,131.73787
602.00000,120.11939
604.00000,121.64562
606.00000,126.13787
608.00000,136.42761
610.00000,138.73686
612.00000,132.89749
614.00000,128.02998
616.00000,127.41839
618.00000,122.79364
620.00000,116.41798
622.00000,106.71604
624.00000,100.86185
626.00000,114.06602
628.00000,99.40522
630.00000,75.84660
632.00000,66.42490
634.00000,56.50297
636.00000,60.89751
638.00000,64.52244
640.00000,64.44915
642.00000,72.57288
644.00000,88.83717
646.00000,117.07114
648.00000,132.30765
650.00000,135.22211
652.00000,165.18678
654.00000,215.31404
656.00000,289.70981
658.00000,391.57440
660.00000,514.08820
662.00000,645.89447
664.00000,767.03168
666.00000,840.28644
668.00000,841.34210
670.00000,780.05255
672.00000,679.69434
674.00000,580.03925
676.00000,480.65271
678.00000,368.53601
680.00000,289.04620
682.00000,245.64194
684.00000,206.01192
686.00000,162.61478
688.00000,146.37097
690.00000,134.53835
692.00000,118.45372
694.00000,109.80840
696.00000,110.83477
698.00000,96.32911
700.00000,92.62396
702.00000,94.12680
704.00000,82.88953
706.00000,75.98920
708.00000,79.52958
710.00000,83.42650
712.00000,86.18425
714.00000,110.77048
716.00000,181.64919
718.00000,237.36308
720.00000,287.65659
722.00000,375.12302
724.00000,470.00476
726.00000,557.63556
728.00000,635.71863
730.00000,698.77930
732.00000,747.43872
734.00000,809.64172
736.00000,864.45459
738.00000,892.61237
740.00000,904.38586
742.00000,922.06476
744.00000,938.77930
746.00000,950.39868
748.00000,944.48901
750.00000,894.20056
752.00000,790.89063
754.00000,681.09930
756.00000,588.91583
758.00000,502.65070
760.00000,417.25912
762.00000,336.14658
764.00000,282.99033
766.00000,252.04839
768.00000,204.37070
770.00000,159.90921
772.00000,143.93335
774.00000,140.31847
776.00000,117.46683
778.00000,89.65185
780.00000,88.60702
782.00000,87.86116
784.00000,71.02003
786.00000,73.41258
788.00000,72.49818
790.00000,64.57790
792.00000,54.90033
794.00000,51.63824
796.00000,67.50800
798.00000,56.01801
800.00000,66.89226
802.00000,111.99148
804.00000,85.63129
806.00000,71.21230
808.00000,84.87123
810.00000,140.20726
812.00000,243.84145
814.00000,310.06024
816.00000,497.18594
818.00000,786.09320
820.00000,1094.19348
822.00000,1509.50671
824.00000,1954.99573
826.00000,2342.67261
828.00000,2619.65796
830.00000,2734.40356
832.00000,2612.98730
834.00000,2323.55444
836.00000,1987.43420
838.00000,1710.56616
840.00000,1548.68689
842.00000,1463.68152
844.00000,1438.21741
846.00000,1448.77832
848.00000,1452.13989
850.00000,1444.25269
852.00000,1395.45520
854.00000,1286.96716
856.00000,1159.09338
858.00000,1084.48145
860.00000,992.40277
862.00000,899.91406
864.00000,836.73663
866.00000,772.53503
868.00000,728.01910
870.00000,666.61829
872.00000,569.70416
874.00000,471.40790
876.00000,413.44785
878.00000,380.96191
880.00000,354.37018
882.00000,323.82245
884.00000,296.27664
886.00000,310.88361
888.00000,341.40802
890.00000,353.26453
892.00000,343.30994
894.00000,325.06827
896.00000,308.99786
898.00000,284.60165
900.00000,251.42297
902.00000,230.08333
904.00000,205.12222
906.00000,186.36661
908.00000,175.17148
910.00000,152.34758
912.00000,115.98629
914.00000,99.38766
916.00000,101.43784
918.00000,97.89990
920.00000,85.90990
922.00000,81.41291
924.00000,82.67459
926.00000,80.73782
928.00000,71.38379
930.00000,56.11170
932.00000,58.62337
934.00000,69.99464
936.00000,70.64843
938.00000,66.45560
940.00000,41.89157
942.00000,53.00774
944.00000,97.24599
946.00000,97.05991
948.00000,80.06402
950.00000,79.08134
952.00000,101.29214
954.00000,135.15538
956.00000,168.70297
958.00000,199.39806
960.00000,237.87212
962.00000,270.48676
964.00000,266.38879
966.00000,247.84756
968.00000,230.45148
970.00000,207.99681
972.00000,165.55380
974.00000,108.68499
976.00000,88.24592
978.00000,99.25996
980.00000,107.77798
982.00000,105.36807
984.00000,108.31911
986.00000,142.18240
988.00000,175.26590
990.00000,161.55099
992.00000,132.10300
994.00000,100.58485
996.00000,75.66769
998.00000,64.62398
1000.00000,65.38946
1002.00000,63.66201
1004.00000,59.02687
1006.00000,62.57864
1008.00000,78.27760
1010.00000,90.22103
1012.00000,98.45143
1014.00000,101.28446
1016.00000,114.00135
1018.00000,152.78494
1020.00000,147.85529
1022.00000,182.28094
1024.00000,261.86404
1026.00000,289.72421
1028.00000,314.43689
1030.00000,338.90497
1032.00000,357.44348
1034.00000,360.93857
1036.00000,329.33395
1038.00000,283.00757
1040.00000,239.07309
1042.00000,210.06677
1044.00000,181.98869
1046.00000,101.05908
1048.00000,75.10944
1050.00000,93.67545
1052.00000,85.79947
1054.00000,97.72065
1056.00000,95.29344
1058.00000,91.68609
1060.00000,101.39470
1062.00000,100.60606
1064.00000,87.58934
1066.00000,76.98695
1068.00000,66.74323
1070.00000,50.17444
1072.00000,43.58961
1074.00000,54.81683
1076.00000,64.89848
1078.00000,62.67596
1080.00000,63.55233
1082.00000,72.61411
1084.00000,58.16788
1086.00000,61.57689
1088.00000,110.74707
1090.00000,98.82136
1092.00000,94.64846
1094.00000,109.85204
1096.00000,108.76318
1098.00000,96.29286
1100.00000,94.17143
1102.00000,97.16002
1104.00000,119.49683
1106.00000,151.03888
1108.00000,110.36710
1110.00000,106.45210
1112.00000,154.64583
1114.00000,178.67398
1116.00000,154.75725
1118.00000,152.13150
1120.00000,186.03319
1122.00000,207.10187
1124.00000,194.41168
1126.00000,220.72902
1128.00000,199.80646
1130.00000,178.32933
1132.00000,201.92616
1134.00000,162.57668
1136.00000,141.20668
1138.00000,147.87195
1140.00000,158.40843
1142.00000,177.42859
1144.00000,213.27080
1146.00000,276.48911
1148.00000,335.51541
1150.00000,340.42545
1152.00000,302.24283
1154.00000,340.04895
1156.00000,334.58176
1158.00000,278.33453
1160.00000,317.21481
1162.00000,285.94418
1164.00000,242.43060
1166.00000,221.29446
1168.00000,192.81369
1170.00000,183.29573
1172.00000,165.32761
1174.00000,134.85744
1176.00000,107.21443
1178.00000,87.56599
1180.00000,67.00601
1182.00000,51.19518
1184.00000,51.79530
1186.00000,64.17173
1188.00000,61.60835
1190.00000,47.60452
1192.00000,58.05220
1194.00000,96.45852
1196.00000,116.97236
1198.00000,111.08673
1200.00000,99.55714
1202.00000,114.30252
1204.00000,160.92877
1206.00000,203.00989
1208.00000,261.60016
1210.00000,362.87119
1212.00000,514.51453
1214.00000,711.30414
1216.00000,940.65295
1218.00000,1131.29907
1220.00000,1265.38770
1222.00000,1331.80566
1224.00000,1211.50757
1226.00000,997.02887
1228.00000,779.98303
1230.00000,579.16882
1232.00000,393.62946
1234.00000,258.24606
1236.00000,190.09213
1238.00000,164.05498
1240.00000,142.38106
1242.00000,129.06705
1244.00000,132.65376
1246.00000,137.09346
1248.00000,136.33467
1250.00000,143.51215
1252.00000,99.60098
1254.00000,70.61037
1256.00000,79.66837
1258.00000,61.96655
1260.00000,51.44175
1262.00000,48.36125
1264.00000,59.75292
1266.00000,73.34287
1268.00000,54.68513
1270.00000,115.61928
1272.00000,212.88052
1274.00000,269.77325
1276.00000,320.11145
1278.00000,427.95801
1280.00000,509.52591
1282.00000,529.78455
1284.00000,526.78174
1286.00000,508.06659
1288.00000,489.89304
1290.00000,457.24734
1292.00000,419.52786
1294.00000,417.82303
1296.00000,423.32443
1298.00000,403.88824
1300.00000,371.34824
1302.00000,348.66992
1304.00000,315.85754
1306.00000,274.69873
1308.00000,267.97601
1310.00000,285.85718
1312.00000,263.52939
1314.00000,255.37796
1316.00000,245.32570
1318.00000,224.46191
1320.00000,224.51154
1322.00000,239.47629
1324.00000,166.37985
1326.00000,100.04843
1328.00000,106.80162
1330.00000,56.67728
1332.00000,15.98117
1334.00000,9.26204
1336.00000,14.50996
1338.00000,22.05902
1340.00000,49.52546
1342.00000,60.15475
1344.00000,58.57329
1346.00000,57.82396
1348.00000,46.00116
1350.00000,88.41505
1352.00000,86.08383
1354.00000,51.53704
1356.00000,108.10221
1358.00000,143.43251
1360.00000,148.60396
1362.00000,155.01518
1364.00000,172.61392
1366.00000,190.77383
1368.00000,205.73334
1370.00000,180.53729
1372.00000,134.98700
1374.00000,130.19226
1376.00000,118.53596
1378.00000,83.52428
1380.00000,86.35107
1382.00000,147.39763
1384.00000,165.53889
1386.00000,161.81567
1388.00000,132.58372
1390.00000,116.72377
1392.00000,167.41307
1394.00000,154.29114
1396.00000,115.14288
1398.00000,114.11118
1400.00000,137.90700
1402.00000,135.35167
1404.00000,122.44272
1406.00000,96.67321
1408.00000,59.45851
1410.00000,35.39042
1412.00000,16.14336
1414.00000,10.60724
1416.00000,19.14195
1418.00000,32.26811
1420.00000,55.39375
1422.00000,89.42599
1424.00000,77.21225
1426.00000,43.92233
1428.00000,100.75337
1430.00000,138.26666
1432.00000,176.85767
1434.00000,264.04855
1436.00000,385.37036
1438.00000,511.53586
1440.00000,632.22455
1442.00000,762.91095
1444.00000,892.59485
1446.00000,980.40808
1448.00000,1068.82996
1450.00000,1120.42798
1452.00000,1141.06885
1454.00000,1172.72473
1456.00000,1152.04797
1458.00000,1155.92908
1460.00000,1154.25281
1462.00000,1107.48083
1464.00000,1113.52673
1466.00000,1144.20203
1468.00000,1126.03711
1470.00000,1099.60754
1472.00000,1144.70715
1474.00000,1135.74060
1476.00000,1071.21558
1478.00000,997.07092
1480.00000,906.99261
1482.00000,755.14795
1484.00000,615.13727
1486.00000,462.10013
1488.00000,322.05200
1490.00000,273.02255
1492.00000,188.25925
1494.00000,143.12259
1496.00000,159.25693
1498.00000,153.96330
1500.00000,102.22576
1502.00000,68.13340
1504.00000,50.39087
1506.00000,37.18731
1508.00000,55.60200
1510.00000,90.40273
1512.00000,95.47961
1514.00000,58.51537
1516.00000,48.73364
1518.00000,139.06416
1520.00000,100.27568
1522.00000,39.88636
1524.00000,76.31507
1526.00000,52.79329
1528.00000,20.31982
1530.00000,29.50492
1532.00000,55.88914
1534.00000,67.07852
1536.00000,103.01904
1538.00000,122.44981
1540.00000,120.26730
1542.00000,108.28075
1544.00000,76.61897
1546.00000,62.49546
1548.00000,79.86454
1550.00000,101.97579
1552.00000,106.06067
1554.00000,121.61834
1556.00000,125.34939
1558.00000,73.75029
1560.00000,17.00859
1562.00000,63.52578
1564.00000,60.21731
1566.00000,24.15318
1568.00000,22.01799
1570.00000,37.75438
1572.00000,43.21252
1574.00000,70.26205
1576.00000,130.57211
1578.00000,150.87915
1580.00000,58.58892
1582.00000,60.35509
1584.00000,95.79474
1586.00000,81.42474
1588.00000,86.80830
1590.00000,111.23773
1592.00000,146.25439
1594.00000,151.48454
1596.00000,118.86628
1598.00000,110.50523
1600.00000,75.84380
1602.00000,86.18942
1604.00000,125.29772
1606.00000,90.56457
1608.00000,157.29828
1610.00000,152.55670
1612.00000,115.72955
1614.00000,174.94237
1616.00000,124.98015
1618.00000,138.80775
1620.00000,162.23727
1622.00000,119.08574
1624.00000,117.87711
1626.00000,115.13419
1628.00000,165.70731
1630.00000,198.11214
1632.00000,140.71251
1634.00000,165.16121
1636.00000,95.37369
1638.00000,53.34663
1640.00000,111.21103
1642.00000,67.04237
1644.00000,152.69150
1646.00000,150.30756
1648.00000,74.45621
1650.00000,142.20087
1652.00000,97.84909
1654.00000,95.91013
1656.00000,91.91623
1658.00000,34.48431
1660.00000,97.91462
1662.00000,98.55242
1664.00000,121.98549
1666.00000,156.77501
1668.00000,66.79098
1670.00000,27.10529
1672.00000,29.11148
1674.00000,42.56694
1676.00000,70.83984
1678.00000,98.39013
1680.00000,94.69890
1682.00000,88.71071
1684.00000,89.04877
1686.00000,69.33649
1688.00000,57.56450
1690.00000,65.76534
1692.00000,66.23566
1694.00000,46.42113
1696.00000,49.91209
1698.00000,80.96733
1700.00000,102.53700
1702.00000,95.71413
1704.00000,72.71680
1706.00000,36.89521
1708.00000,83.62329
1710.00000,121.43891
1712.00000,56.16379
1714.00000,73.46249
1716.00000,156.59216
1718.00000,157.12271
1720.00000,97.48573
1722.00000,127.88340
1724.00000,73.19012
1726.00000,78.65231
1728.00000,111.18501
1730.00000,67.17143
1732.00000,164.82396
1734.00000,164.27220
1736.00000,101.37170
1738.00000,107.84016
1740.00000,105.42590
1742.00000,77.60029
1744.00000,120.68788
1746.00000,174.82816
1748.00000,137.78043
1750.00000,157.52104
1752.00000,171.64983
1754.00000,159.40894
1756.00000,124.78127
1758.00000,56.71192
1760.00000,97.99399
1762.00000,127.20520
1764.00000,128.90688
1766.00000,172.06512
1768.00000,68.35418
1770.00000,81.97166
1772.00000,106.70042
1774.00000,16.58042
1776.00000,89.13479
1778.00000,140.03053
1780.00000,105.92515
1782.00000,78.65762
1784.00000,126.16781
1786.00000,164.09450
1788.00000,100.07118
1790.00000,77.27895
1792.00000,157.16113
1794.00000,109.39447
1796.00000,120.52488
1798.00000,167.13965
1800.00000,155.22447
1802.00000,130.13661
1804.00000,168.76968
1806.00000,180.98529
1808.00000,129.77649
1810.00000,120.96226
1812.00000,242.12079
1814.00000,240.24924
1816.00000,254.60939
1818.00000,313.63580
1820.00000,190.23801
1822.00000,163.45476
1824.00000,177.20323
1826.00000,196.75754
1828.00000,241.79085
1830.00000,208.19312
1832.00000,286.23804
1834.00000,273.25049
1836.00000,119.99096
1838.00000,148.49266
1840.00000,144.04347
1842.00000,145.10379
1844.00000,147.97591
1846.00000,117.14563
1848.00000,218.31493
1850.00000,249.30771
1852.00000,202.53337
1854.00000,180.12181
1856.00000,161.81482
1858.00000,154.15244
1860.00000,226.69551
1862.00000,259.39563
1864.00000,183.97270
1866.00000,307.75568
1868.00000,190.31087
1870.00000,83.20678
1872.00000,212.02910
1874.00000,97.74310
1876.00000,141.13651
1878.00000,249.54167
1880.00000,198.15994
1882.00000,70.91521
1884.00000,77.61247
1886.00000,41.09499
1888.00000,18.12811
1890.00000,99.10210
1892.00000,106.05527
1894.00000,195.36664
1896.00000,257.93546
1898.00000,157.93520
1900.00000,8.02711
1902.00000,31.09518
1904.00000,63.83478
1906.00000,111.82079
1908.00000,221.32356
1910.00000,205.29831
1912.00000,251.09438
1914.00000,257.99716
1916.00000,170.30228
1918.00000,180.65256
1920.00000,303.89761
1922.00000,367.00616
1924.00000,371.62286
1926.00000,398.45026
1928.00000,360.93472
1930.00000,329.28629
1932.00000,299.22174
1934.00000,259.91229
1936.00000,261.71173
1938.00000,301.21097
1940.00000,374.26062
1942.00000,362.38458
1944.00000,257.95813
1946.00000,324.78210
1948.00000,288.86420
1950.00000,285.68503
1952.00000,431.67261
1954.00000,445.18637
1956.00000,368.81873
1958.00000,336.24594
1960.00000,298.49271
1962.00000,178.80646
1964.00000,165.42923
1966.00000,225.39238
1968.00000,208.45781
1970.00000,186.86148
1972.00000,355.51883
1974.00000,291.69986
1976.00000,269.92630
1978.00000,283.12946
1980.00000,109.41578
1982.00000,292.82120
1984.00000,314.67856
1986.00000,194.34700
1988.00000,183.63867
1990.00000,57.95904
1992.00000,92.84188
1994.00000,148.98148
1996.00000,101.80827
1998.00000,81.46301
2000.00000,134.77806
2002.00000,119.70148
2004.00000,91.36398
2006.00000,127.97623
2008.00000,109.76627
2010.00000,111.33035
2012.00000,152.64821
2014.00000,160.63902
2016.00000,145.03432
2018.00000,107.02273
2020.00000,93.79191
2022.00000,111.55865
2024.00000,81.65748
2026.00000,83.61839
2028.00000,91.13757
2030.00000,83.49862
2032.00000,109.57644
2034.00000,79.09456
2036.00000,41.11623
2038.00000,48.99550
2040.00000,75.86802
2042.00000,93.09570
2044.00000,69.09030
2046.00000,37.94528
2048.00000,39.13819
2050.00000,37.02391
2052.00000,85.13242
2054.00000,99.75680
2056.00000,41.24091
2058.00000,57.44235
2060.00000,108.04494
2062.00000,110.93940
2064.00000,72.63332
2066.00000,71.71082
2068.00000,92.02859
2070.00000,78.01673
2072.00000,53.28291
2074.00000,75.21463
2076.00000,91.63208
2078.00000,92.75337
2080.00000,87.16665
2082.00000,76.30816
2084.00000,61.75872
2086.00000,80.40849
2088.00000,94.01772
2090.00000,70.01038
2092.00000,55.44349
2094.00000,74.31724
2096.00000,92.96222
2098.00000,98.74535
2100.00000,119.52609
2102.00000,141.31586
2104.00000,109.53711
2106.00000,82.12627
2108.00000,125.91288
2110.00000,120.15826
2112.00000,91.84300
2114.00000,87.82821
2116.00000,90.71482
2118.00000,57.07467
2120.00000,67.87074
2122.00000,86.15915
2124.00000,63.93692
2126.00000,50.29386
2128.00000,71.12354
2130.00000,111.05138
2132.00000,118.15192
2134.00000,70.10420
2136.00000,50.70610
2138.00000,65.44682
2140.00000,72.27391
2142.00000,65.74391
2144.00000,103.33857
2146.00000,131.67255
2148.00000,132.49254
2150.00000,124.63760
2152.00000,111.93823
2154.00000,105.21310
2156.00000,94.35413
2158.00000,81.69502
2160.00000,85.97104
2162.00000,89.50818
2164.00000,97.18465
2166.00000,91.99125
2168.00000,56.72406
2170.00000,42.74979
2172.00000,62.59499
2174.00000,83.60934
2176.00000,80.72813
2178.00000,76.13508
2180.00000,69.84085
2182.00000,72.38941
2184.00000,82.46149
2186.00000,77.10321
2188.00000,71.71388
2190.00000,88.57343
2192.00000,100.09617
2194.00000,76.79352
2196.00000,104.55299
2198.00000,123.62115
2200.00000,87.14559
2202.00000,42.20990
2204.00000,50.67396
2206.00000,56.38148
2208.00000,60.94823
2210.00000,87.63377
2212.00000,89.73699
2214.00000,71.64049
2216.00000,78.98684
2218.00000,113.09602
2220.00000,116.77341
2222.00000,98.56713
2224.00000,91.57533
2226.00000,104.05948
2228.00000,117.70715
2230.00000,129.10327
2232.00000,147.07329
2234.00000,169.82497
2236.00000,165.69635
2238.00000,109.99686
2240.00000,141.88065
2242.00000,159.86244
2244.00000,77.88588
2246.00000,78.28664
2248.00000,125.64402
2250.00000,159.79068
2252.00000,161.21887
2254.00000,145.24170
2256.00000,140.19566
2258.00000,138.44882
2260.00000,141.70541
2262.00000,168.65344
2264.00000,206.11778
2266.00000,182.94780
2268.00000,129.79460
2270.00000,130.48720
2272.00000,174.63435
2274.00000,186.48276
2276.00000,180.44800
2278.00000,181.53537
2280.00000,161.87306
2282.00000,172.95137
2284.00000,143.64110
2286.00000,91.84264
2288.00000,129.61264
2290.00000,145.74266
2292.00000,106.52810
2294.00000,92.49226
2296.00000,147.96423
2298.00000,148.88145
2300.00000,126.87667
2302.00000,129.04576
2304.00000,137.11787
2306.00000,104.35165
2308.00000,83.61094
2310.00000,86.50757
2312.00000,96.91007
2314.00000,108.98824
2316.00000,102.49691
2318.00000,98.82233
2320.00000,88.64422
2322.00000,50.66108
2324.00000,50.09684
2326.00000,49.00935
2328.00000,35.89577
2330.00000,37.01682
2332.00000,37.41039
2334.00000,39.32700
2336.00000,57.76182
2338.00000,83.39908
2340.00000,80.94720
2342.00000,77.79269
2344.00000,101.52398
2346.00000,113.41271
2348.00000,64.11087
2350.00000,58.00023
2352.00000,88.94151
2354.00000,98.61745
2356.00000,80.14441
2358.00000,95.74294
2360.00000,87.19537
2362.00000,39.63520
2364.00000,22.91332
2366.00000,86.47369
2368.00000,108.41795
2370.00000,79.44791
2372.00000,64.71301
2374.00000,82.93767
2376.00000,129.20673
2378.00000,139.23128
2380.00000,127.97645
2382.00000,168.50276
2384.00000,177.51601
2386.00000,159.67415
2388.00000,144.49794
2390.00000,141.96083
2392.00000,159.76418
2394.00000,178.38734
2396.00000,180.96239
2398.00000,173.66788
2400.00000,173.79066
2402.00000,155.73895
2404.00000,153.47572
2406.00000,166.17036
2408.00000,140.03920
2410.00000,151.13438
2412.00000,117.69341
2414.00000,95.18164
2416.00000,204.51967
2418.00000,199.15683
2420.00000,163.40614
2422.00000,193.27354
2424.00000,220.37366
2426.00000,153.43668
2428.00000,171.53015
2430.00000,178.43878
2432.00000,83.80722
2434.00000,104.07811
2436.00000,151.06522
2438.00000,126.88799
2440.00000,87.91455
2442.00000,136.56314
2444.00000,128.60568
2446.00000,95.16101
2448.00000,74.99260
2450.00000,48.44122
2452.00000,57.20047
2454.00000,77.32516
2456.00000,88.72178
2458.00000,102.56345
2460.00000,130.69051
2462.00000,137.60921
2464.00000,91.28518
2466.00000,43.69877
2468.00000,83.16293
2470.00000,89.62365
2472.00000,75.98219
2474.00000,72.24405
2476.00000,51.20418
2478.00000,56.29143
2480.00000,71.99119
2482.00000,87.39586
2484.00000,103.91703
2486.00000,88.73921
2488.00000,45.54936
2490.00000,50.94304
2492.00000,104.71140
2494.00000,77.95739
2496.00000,103.95140
2498.00000,138.11273
2500.00000,111.03728
2502.00000,98.21558
2504.00000,105.03619
2506.00000,117.94691
2508.00000,113.27641
2510.00000,88.49781
2512.00000,97.21050
2514.00000,95.63785
2516.00000,110.73495
2518.00000,162.93030
2520.00000,126.43840
2522.00000,107.06647
2524.00000,126.55524
2526.00000,129.29886
2528.00000,121.72350
2530.00000,136.35411
2532.00000,151.91266
2534.00000,173.32941
2536.00000,217.93752
2538.00000,167.76093
2540.00000,159.13167
2542.00000,195.87639
2544.00000,136.41148
2546.00000,89.44073
2548.00000,138.92374
2550.00000,180.77174
2552.00000,138.34073
2554.00000,172.04588
2556.00000,222.55008
2558.00000,208.93013
2560.00000,170.93629
2562.00000,204.14154
2564.00000,181.50049
2566.00000,136.21349
2568.00000,159.49837
2570.00000,211.61490
2572.00000,125.23553
2574.00000,94.60066
2576.00000,153.06857
2578.00000,140.89374
2580.00000,112.63004
2582.00000,92.77865
2584.00000,91.75723
2586.00000,87.31046
2588.00000,45.44868
2590.00000,102.41994
2592.00000,175.12236
2594.00000,139.31267
2596.00000,64.52466
2598.00000,93.54503
2600.00000,114.17717
2602.00000,94.97266
2604.00000,132.52448
2606.00000,112.35009
2608.00000,86.48787
2610.00000,81.95687
2612.00000,71.86749
2614.00000,81.54739
2616.00000,67.69814
2618.00000,52.93087
2620.00000,75.07467
2622.00000,92.39209
2624.00000,54.67309
2626.00000,60.51950
2628.00000,138.76646
2630.00000,155.14105
2632.00000,81.78101
2634.00000,67.72599
2636.00000,88.96410
2638.00000,26.96489
2640.00000,59.41816
2642.00000,144.40324
2644.00000,164.51610
2646.00000,110.06836
2648.00000,107.70170
2650.00000,150.43854
2652.00000,114.74774
2654.00000,27.63654
2656.00000,86.76931
2658.00000,122.70914
2660.00000,124.18689
2662.00000,156.13985
2664.00000,199.89093
2666.00000,190.96564
2668.00000,182.38321
2670.00000,177.08266
2672.00000,142.55022
2674.00000,148.66217
2676.00000,151.40808
2678.00000,141.86096
2680.00000,154.85765
2682.00000,185.43997
2684.00000,174.84059
2686.00000,127.89469
2688.00000,88.13515
2690.00000,79.05636
2692.00000,93.48946
2694.00000,107.53144
2696.00000,141.24527
2698.00000,204.61392
2700.00000,182.50717
2702.00000,130.15022
2704.00000,134.83084
2706.00000,158.74202
2708.00000,68.30712
2710.00000,60.61957
2712.00000,112.90297
2714.00000,125.99557
2716.00000,181.13326
2718.00000,172.04109
2720.00000,130.55476
2722.00000,169.33284
2724.00000,273.30432
2726.00000,220.79106
2728.00000,253.84586
2730.00000,380.31989
2732.00000,336.83170
2734.00000,286.51880
2736.00000,327.66980
2738.00000,311.00339
2740.00000,152.79422
2742.00000,103.06797
2744.00000,82.64445
2746.00000,79.92523
2748.00000,102.14964
2750.00000,65.09010
2752.00000,24.33041
2754.00000,5.01443
2756.00000,-0.00229
2758.00000,0.48739
2760.00000,1.57838
2762.00000,63.66664
2764.00000,113.78282
2766.00000,94.86463
2768.00000,216.28911
2770.00000,284.31534
2772.00000,212.69972
2774.00000,181.87543
2776.00000,343.93295
2778.00000,311.01205
2780.00000,312.97607
2782.00000,517.48059
2784.00000,545.73743
2786.00000,509.98788
2788.00000,510.44083
2790.00000,542.41180
2792.00000,581.52924
2794.00000,659.53796
2796.00000,701.46417
2798.00000,699.70288
2800.00000,715.21014
2802.00000,747.44086
2804.00000,783.87927
2806.00000,847.99628
2808.00000,920.53589
2810.00000,935.73547
2812.00000,1034.94153
2814.00000,1224.10486
2816.00000,1381.42151
2818.00000,1463.01526
2820.00000,1668.22632
2822.00000,1806.41382
2824.00000,1909.76160
2826.00000,2157.66235
2828.00000,2209.92310
2830.00000,2307.96265
2832.00000,2490.92334
2834.00000,2562.40918
2836.00000,2565.73584
2838.00000,2602.14209
2840.00000,2617.81226
2842.00000,2580.25439
2844.00000,2575.72559
2846.00000,2481.34644
2848.00000,2351.58350
2850.00000,2244.12964
2852.00000,2112.87280
2854.00000,1983.47791
2856.00000,1805.13245
2858.00000,1660.51807
2860.00000,1594.01855
2862.00000,1352.23267
2864.00000,1266.52795
2866.00000,1284.74939
2868.00000,1149.86743
2870.00000,1018.70520
2872.00000,1026.90906
2874.00000,1024.51685
2876.00000,969.46057
2878.00000,1091.13440
2880.00000,1306.05200
2882.00000,1430.20813
2884.00000,1444.62207
2886.00000,1494.19873
2888.00000,1619.51575
2890.00000,1728.98059
2892.00000,1839.56079
2894.00000,2032.05444
2896.00000,2212.00903
2898.00000,2153.23999
2900.00000,2174.52246
2902.00000,2371.33667
2904.00000,2182.38184
2906.00000,2189.09985
2908.00000,2326.05518
2910.00000,2343.07056
2912.00000,2366.12280
2914.00000,2357.18164
2916.00000,2415.03394
2918.00000,2530.65820
2920.00000,2561.92285
2922.00000,2535.97119
2924.00000,2690.34595
2926.00000,2844.77734
2928.00000,2810.06396
2930.00000,2956.01343
2932.00000,3046.08472
2934.00000,2970.02563
2936.00000,2974.69263
2938.00000,3282.67676
2940.00000,3388.22339
2942.00000,3426.56396
2944.00000,3637.31372
2946.00000,3840.57031
2948.00000,3824.04858
2950.00000,3884.45264
2952.00000,4076.37695
2954.00000,4118.29004
2956.00000,4008.67334
2958.00000,4082.15771
2960.00000,4071.40479
2962.00000,3749.55493
2964.00000,3662.88086
2966.00000,3587.70386
2968.00000,3401.13574
2970.00000,3276.97534
2972.00000,3323.45898
2974.00000,3123.04297
2976.00000,2946.66943
2978.00000,2915.63086
2980.00000,2753.74854
2982.00000,2624.60620
2984.00000,2468.16382
2986.00000,2311.95703
2988.00000,2263.68188
2990.00000,2234.10229
2992.00000,2130.93481
2994.00000,1969.55554
2996.00000,1827.39038
2998.00000,1760.65601
3000.00000,1791.27625
3002.00000,1795.34814
3004.00000,1755.04285
3006.00000,1765.98596
3008.00000,1614.15857
3010.00000,1344.66077
3012.00000,1225.24329
3014.00000,1319.39636
3016.00000,1192.88586
3018.00000,1177.00659
3020.00000,1233.52710
3022.00000,1061.70654
3024.00000,896.99487
3026.00000,959.37897
3028.00000,941.44385
3030.00000,810.11316
3032.00000,1044.77161
3034.00000,955.92645
3036.00000,743.05560
3038.00000,725.93494
3040.00000,646.24500
3042.00000,380.38382
3044.00000,527.98578
3046.00000,720.63354
3048.00000,339.15927
3050.00000,431.89383
3052.00000,385.91678
3054.00000,99.10570
3056.00000,111.56983
3058.00000,375.68948
3060.00000,193.44293
3062.00000,-10.85478
3064.00000,147.49855
3066.00000,129.36447
3068.00000,32.39687
3070.00000,-6.68514
3072.00000,-0.78152
3074.00000,5.47532
3076.00000,113.93343
3078.00000,194.54671
3080.00000,134.44138
3082.00000,5.36528
3084.00000,-11.95344
3086.00000,43.38262
3088.00000,172.68987
3090.00000,294.69388
3092.00000,197.90094
3094.00000,111.70988
3096.00000,72.57415
3098.00000,122.14474
3100.00000,338.96265
3102.00000,336.91922
3104.00000,325.50540
3106.00000,380.56158
3108.00000,292.89005
3110.00000,233.47487
3112.00000,284.14148
3114.00000,407.03705
3116.00000,488.31097
3118.00000,442.40686
3120.00000,443.61557
3122.00000,316.33792
3124.00000,92.05508
3126.00000,251.49498
3128.00000,406.53757
3130.00000,436.38477
3132.00000,383.82101
3134.00000,270.68292
3136.00000,267.60757
3138.00000,94.63450
3140.00000,50.74918
3142.00000,416.39227
3144.00000,206.50708
3146.00000,175.19124
3148.00000,256.62448
3150.00000,1.50113
3152.00000,-6.55369
3154.00000,-39.69147
3156.00000,120.43764
3158.00000,468.94888
3160.00000,372.11005
3162.00000,146.62601
3164.00000,113.09755
3166.00000,122.39050
3168.00000,-10.44775
3170.00000,247.67415
3172.00000,272.56775
3174.00000,140.15256
3176.00000,325.05447
3178.00000,192.82631
3180.00000,90.61602
3182.00000,299.04538
3184.00000,558.18939
3186.00000,428.15433
3188.00000,220.35849
3190.00000,328.27914
3192.00000,561.13348
3194.00000,492.13715
3196.00000,758.04425
3198.00000,756.41974
3200.00000,571.39526
