300.00000,1103.55957
302.00000,1022.03021
304.00000,925.57275
306.00000,793.49817
308.00000,659.05304
310.00000,551.07800
312.00000,470.55307
314.00000,407.17056
316.00000,358.87439
318.00000,296.28287
320.00000,234.62163
322.00000,217.37993
324.00000,184.84683
326.00000,245.97807
328.00000,250.33936
330.00000,104.63988
332.00000,194.23512
334.00000,155.68211
336.00000,58.72350
338.00000,83.23811
340.00000,87.01313
342.00000,139.57320
344.00000,157.76559
346.00000,179.04878
348.00000,299.49118
350.00000,387.64816
352.00000,508.46085
354.00000,604.66125
356.00000,613.26263
358.00000,612.55426
360.00000,587.19220
362.00000,513.87256
364.00000,422.14413
366.00000,357.77313
368.00000,304.09076
370.00000,255.70181
372.00000,216.71359
374.00000,194.98579
376.00000,188.52333
378.00000,162.07571
380.00000,137.91931
382.00000,153.03197
384.00000,199.46680
386.00000,213.90610
388.00000,159.08342
390.00000,116.70396
392.00000,128.71948
394.00000,97.69597
396.00000,104.35896
398.00000,129.77284
400.00000,128.20267
402.00000,111.04012
404.00000,92.47233
406.00000,105.86993
408.00000,146.91664
410.00000,181.92870
412.00000,195.56956
414.00000,198.48254
416.00000,203.54671
418.00000,207.11775
420.00000,207.05675
422.00000,237.32239
424.00000,256.34683
426.00000,245.19481
428.00000,238.25742
430.00000,262.99588
432.00000,277.24200
434.00000,268.57037
436.00000,270.36221
438.00000,305.66687
440.00000,319.82281
442.00000,317.29260
444.00000,326.20364
446.00000,348.60724
448.00000,358.83350
450.00000,370.43332
452.00000,383.01828
454.00000,395.56232
456.00000,415.93600
458.00000,417.52151
460.00000,412.33310
462.00000,390.78506
464.00000,356.62607
466.00000,381.21576
468.00000,341.37344
470.00000,292.52927
472.00000,291.33011
474.00000,227.45747
476.00000,207.53299
478.00000,208.33987
480.00000,209.73572
482.00000,243.65451
484.00000,260.60471
486.00000,251.93164
488.00000,254.55511
490.00000,293.61990
492.00000,335.17572
494.00000,323.28583
496.00000,288.77042
498.00000,283.16782
500.00000,306.44189
502.00000,310.51520
504.00000,277.80374
506.00000,230.21991
508.00000,199.54556
510.00000,192.27560
512.00000,185.68918
514.00000,162.08748
516.00000,130.42766
518.00000,119.78396
520.00000,142.95969
522.00000,169.07231
524.00000,193.25815
526.00000,224.55835
528.00000,243.52444
530.00000,264.14557
532.00000,323.27609
534.00000,370.40814
536.00000,331.05615
538.00000,342.18399
540.00000,294.09924
542.00000,213.61412
544.00000,205.71271
546.00000,152.01617
548.00000,130.28804
550.00000,152.11201
552.00000,166.07419
554.00000,158.32701
556.00000,151.40891
558.00000,138.34514
560.00000,145.76022
562.00000,184.94360
564.00000,194.91103
566.00000,316.43567
568.00000,372.76474
570.00000,315.41879
572.00000,430.19675
574.00000,433.87375
576.00000,421.56454
578.00000,436.24530
580.00000,376.94952
582.00000,393.38388
584.00000,395.04648
586.00000,365.98099
588.00000,349.55038
590.00000,317.80890
592.00000,288.99451
594.00000,295.08182
596.00000,305.60126
598.00000,269.48273
600.00000,236.95947
602.00000,231.99207
604.00000,244.65251
606.00000,251.45123
608.00000,238.85149
610.00000,221.66673
612.00000,218.92081
614.00000,220.38435
616.00000,205.10143
618.00000,198.14601
620.00000,198.31941
622.00000,188.45728
624.00000,164.40746
626.00000,150.68541
628.00000,172.38319
630.00000,189.01411
632.00000,182.10484
634.00000,178.48323
636.00000,148.84073
638.00000,122.95265
640.00000,112.08105
642.00000,126.69444
644.00000,197.38522
646.00000,174.76102
648.00000,127.92977
650.00000,134.70291
652.00000,144.12723
654.00000,254.04485
656.00000,319.97977
658.00000,361.54117
660.00000,505.46539
662.00000,636.02026
664.00000,795.56329
666.00000,888.72345
668.00000,857.71307
670.00000,815.71667
672.00000,738.62305
674.00000,642.02704
676.00000,545.98480
678.00000,457.96933
680.00000,400.69003
682.00000,343.39542
684.00000,297.19806
686.00000,273.40115
688.00000,243.11717
690.00000,230.84671
692.00000,225.49133
694.00000,206.38829
696.00000,175.97365
698.00000,152.84065
700.00000,134.91963
702.00000,120.38756
704.00000,113.41293
706.00000,113.32672
708.00000,104.29977
710.00000,92.76291
712.00000,94.95992
714.00000,110.39911
716.00000,118.63545
718.00000,152.61226
720.00000,198.01619
722.00000,245.43585
724.00000,343.74252
726.00000,421.41849
728.00000,493.34680
730.00000,577.60461
732.00000,654.26068
734.00000,764.34662
736.00000,825.69299
738.00000,828.51819
740.00000,835.85400
742.00000,864.54791
744.00000,939.82251
746.00000,967.67932
748.00000,912.26532
750.00000,865.30634
752.00000,825.21912
754.00000,757.69995
756.00000,630.39447
758.00000,487.23892
760.00000,446.04028
762.00000,401.49826
764.00000,313.19165
766.00000,238.88098
768.00000,220.83701
770.00000,201.02328
772.00000,175.87254
774.00000,158.65240
776.00000,148.09837
778.00000,141.75774
780.00000,136.08055
782.00000,147.22136
784.00000,158.43173
786.00000,123.18613
788.00000,95.87225
790.00000,90.11344
792.00000,87.83645
794.00000,87.86056
796.00000,110.33475
798.00000,86.12774
800.00000,72.57618
802.00000,107.13609
804.00000,87.77103
806.00000,82.13092
808.00000,90.53694
810.00000,131.72127
812.00000,237.73448
814.00000,331.25565
816.00000,495.13367
818.00000,744.52673
820.00000,1049.16125
822.00000,1436.32739
824.00000,1851.66223
826.00000,2258.30322
828.00000,2585.35815
830.00000,2723.33862
832.00000,2634.76392
834.00000,2389.42700
836.00000,2085.74609
838.00000,1813.61902
840.00000,1632.78833
842.00000,1510.67249
844.00000,1443.01697
846.00000,1441.95715
848.00000,1483.45703
850.00000,1495.72192
852.00000,1452.78516
854.00000,1372.04077
856.00000,1275.92542
858.00000,1170.84790
860.00000,1092.91663
862.00000,1014.45367
864.00000,936.77899
866.00000,908.98517
868.00000,862.33392
870.00000,764.15082
872.00000,645.14655
874.00000,554.80444
876.00000,503.19858
878.00000,465.08737
880.00000,413.69067
882.00000,362.01874
884.00000,356.44901
886.00000,392.20093
888.00000,396.02466
890.00000,364.56970
892.00000,348.57227
894.00000,334.65182
896.00000,369.42380
898.00000,400.19916
900.00000,362.62900
902.00000,308.18130
904.00000,311.94095
906.00000,296.27112
908.00000,241.80412
910.00000,220.81839
912.00000,210.17575
914.00000,201.42314
916.00000,211.04224
918.00000,224.02087
920.00000,195.07568
922.00000,189.15038
924.00000,194.40298
926.00000,176.19574
928.00000,145.07275
930.00000,134.36649
932.00000,140.27167
934.00000,147.95609
936.00000,141.17833
938.00000,108.54527
940.00000,79.66498
942.00000,79.31261
944.00000,92.50153
946.00000,86.11143
948.00000,72.06252
950.00000,58.83175
952.00000,88.84858
954.00000,143.21669
956.00000,106.70695
958.00000,105.84679
960.00000,161.44066
962.00000,218.88881
964.00000,241.44937
966.00000,183.05170
968.00000,145.79637
970.00000,139.37103
972.00000,108.48360
974.00000,103.75946
976.00000,83.82633
978.00000,70.94981
980.00000,81.75873
982.00000,81.55561
984.00000,112.90591
986.00000,133.04289
988.00000,112.83167
990.00000,80.04189
992.00000,61.24440
994.00000,49.40079
996.00000,44.98173
998.00000,42.40108
1000.00000,32.76077
1002.00000,60.18764
1004.00000,83.35822
1006.00000,81.18687
1008.00000,84.37696
1010.00000,93.97651
1012.00000,97.77856
1014.00000,89.73833
1016.00000,95.02150
1018.00000,140.59729
1020.00000,155.10608
1022.00000,191.91492
1024.00000,262.14600
1026.00000,300.75064
1028.00000,335.74265
1030.00000,354.52151
1032.00000,348.01651
1034.00000,324.77719
1036.00000,294.20721
1038.00000,262.32416
1040.00000,222.54381
1042.00000,183.10385
1044.00000,155.61884
1046.00000,114.22596
1048.00000,93.02186
1050.00000,88.60787
1052.00000,73.45647
1054.00000,63.47090
1056.00000,75.38770
1058.00000,91.97393
1060.00000,99.18485
1062.00000,106.38782
1064.00000,114.78417
1066.00000,118.09880
1068.00000,111.80443
1070.00000,102.49962
1072.00000,107.89469
1074.00000,133.57292
1076.00000,166.78210
1078.00000,189.39723
1080.00000,191.11043
1082.00000,174.13976
1084.00000,162.74277
1086.00000,172.20647
1088.00000,196.68008
1090.00000,219.01405
1092.00000,220.46443
1094.00000,211.25307
1096.00000,202.02515
1098.00000,191.23268
1100.00000,205.85001
1102.00000,217.43329
1104.00000,211.82532
1106.00000,198.07051
1108.00000,171.36208
1110.00000,211.63942
1112.00000,252.09573
1114.00000,240.38759
1116.00000,270.14078
1118.00000,295.23917
1120.00000,278.01746
1122.00000,257.38016
1124.00000,277.29742
1126.00000,277.95474
1128.00000,263.21402
1130.00000,282.62314
1132.00000,322.54498
1134.00000,307.71851
1136.00000,336.98795
1138.00000,365.99741
1140.00000,351.59354
1142.00000,339.42050
1144.00000,341.38400
1146.00000,367.24728
1148.00000,388.36938
1150.00000,391.39404
1152.00000,414.39124
1154.00000,417.45813
1156.00000,413.64725
1158.00000,419.73734
1160.00000,407.43820
1162.00000,355.00668
1164.00000,323.50378
1166.00000,299.69751
1168.00000,243.93665
1170.00000,202.95944
1172.00000,159.63393
1174.00000,140.71513
1176.00000,149.12181
1178.00000,130.59921
1180.00000,85.63351
1182.00000,75.47233
1184.00000,90.49913
1186.00000,81.59115
1188.00000,68.60818
1190.00000,48.93950
1192.00000,31.09967
1194.00000,30.45000
1196.00000,45.46101
1198.00000,52.24602
1200.00000,67.06537
1202.00000,94.60286
1204.00000,123.21766
1206.00000,164.24341
1208.00000,225.49551
1210.00000,332.73541
1212.00000,504.71664
1214.00000,707.94550
1216.00000,864.79828
1218.00000,1108.72144
1220.00000,1344.90137
1222.00000,1344.51062
1224.00000,1251.79443
1226.00000,1073.79297
1228.00000,857.17651
1230.00000,643.76636
1232.00000,414.12952
1234.00000,288.25317
1236.00000,223.36385
1238.00000,172.05273
1240.00000,166.89603
1242.00000,196.12099
1244.00000,209.78232
1246.00000,214.75601
1248.00000,219.68285
1250.00000,189.27715
1252.00000,190.17621
1254.00000,181.13081
1256.00000,133.08702
1258.00000,106.87141
1260.00000,135.83075
1262.00000,133.25305
1264.00000,141.77322
1266.00000,192.18669
1268.00000,153.33852
1270.00000,195.59531
1272.00000,279.88892
1274.00000,339.07349
1276.00000,434.76740
1278.00000,543.41309
1280.00000,609.18677
1282.00000,644.80658
1284.00000,698.10773
1286.00000,747.96765
1288.00000,711.89728
1290.00000,632.81372
1292.00000,576.60858
1294.00000,530.35675
1296.00000,481.66681
1298.00000,450.64496
1300.00000,420.04388
1302.00000,379.84741
1304.00000,391.12524
1306.00000,392.87381
1308.00000,366.08054
1310.00000,337.47699
1312.00000,317.97183
1314.00000,295.07916
1316.00000,276.31171
1318.00000,261.53641
1320.00000,224.00183
1322.00000,153.64340
1324.00000,180.86673
1326.00000,174.89116
1328.00000,65.96039
1330.00000,61.12611
1332.00000,50.26523
1334.00000,30.42431
1336.00000,24.58505
1338.00000,12.33393
1340.00000,6.81415
1342.00000,8.00117
1344.00000,10.20280
1346.00000,19.94878
1348.00000,46.11152
1350.00000,51.07788
1352.00000,55.66584
1354.00000,69.83919
1356.00000,73.74582
1358.00000,82.64137
1360.00000,60.27761
1362.00000,85.89687
1364.00000,196.91837
1366.00000,232.92737
1368.00000,186.08813
1370.00000,162.79649
1372.00000,183.00325
1374.00000,164.59137
1376.00000,131.80766
1378.00000,108.07240
1380.00000,103.14040
1382.00000,110.54518
1384.00000,120.43643
1386.00000,172.89732
1388.00000,217.83456
1390.00000,214.51524
1392.00000,194.60435
1394.00000,167.09464
1396.00000,194.52888
1398.00000,213.42175
1400.00000,160.74574
1402.00000,169.03989
1404.00000,188.64438
1406.00000,201.00581
1408.00000,206.39990
1410.00000,178.07028
1412.00000,144.03070
1414.00000,140.89674
1416.00000,163.94928
1418.00000,176.64641
1420.00000,166.20262
1422.00000,174.40739
1424.00000,218.29237
1426.00000,280.83655
1428.00000,329.33942
1430.00000,331.77026
1432.00000,373.51340
1434.00000,471.35413
1436.00000,549.87823
1438.00000,615.14478
1440.00000,765.49078
1442.00000,948.83600
1444.00000,1079.23486
1446.00000,1199.69116
1448.00000,1327.48633
1450.00000,1357.98376
1452.00000,1334.52808
1454.00000,1370.88489
1456.00000,1320.94897
1458.00000,1331.06335
1460.00000,1307.10718
1462.00000,1215.47229
1464.00000,1324.80664
1466.00000,1257.71265
1468.00000,1199.63843
1470.00000,1236.16174
1472.00000,1152.88477
1474.00000,1201.71619
1476.00000,1161.44739
1478.00000,999.33319
1480.00000,868.15967
1482.00000,734.63385
1484.00000,627.31879
1486.00000,505.42026
1488.00000,378.56760
1490.00000,311.47498
1492.00000,225.00409
1494.00000,152.05922
1496.00000,117.25160
1498.00000,100.17944
1500.00000,92.85617
1502.00000,88.12848
1504.00000,91.74695
1506.00000,106.71997
1508.00000,111.66713
1510.00000,67.90428
1512.00000,21.23142
1514.00000,17.94313
1516.00000,47.54460
1518.00000,62.83651
1520.00000,58.08351
1522.00000,39.38601
1524.00000,41.95495
1526.00000,89.12878
1528.00000,79.81245
1530.00000,96.01159
1532.00000,138.97295
1534.00000,121.96380
1536.00000,108.26630
1538.00000,129.81076
1540.00000,158.07651
1542.00000,162.49883
1544.00000,147.43178
1546.00000,107.62476
1548.00000,96.39780
1550.00000,143.96973
1552.00000,189.89941
1554.00000,141.60443
1556.00000,140.96901
1558.00000,196.36302
1560.00000,213.36923
1562.00000,196.00436
1564.00000,212.16460
1566.00000,240.74817
1568.00000,237.93529
1570.00000,196.99754
1572.00000,143.06688
1574.00000,186.42879
1576.00000,235.01820
1578.00000,200.27277
1580.00000,208.40118
1582.00000,139.49922
1584.00000,132.14235
1586.00000,176.63156
1588.00000,87.24263
1590.00000,100.18528
1592.00000,136.33969
1594.00000,128.97752
1596.00000,119.86067
1598.00000,120.19827
1600.00000,145.57768
1602.00000,105.52512
1604.00000,59.47097
1606.00000,135.33278
1608.00000,49.01961
1610.00000,48.26514
1612.00000,124.77468
1614.00000,83.39854
1616.00000,103.29871
1618.00000,57.52782
1620.00000,-3.43711
1622.00000,0.70285
1624.00000,13.10761
1626.00000,72.41016
1628.00000,63.40981
1630.00000,58.10099
1632.00000,157.65671
1634.00000,126.42045
1636.00000,73.24262
1638.00000,83.67550
1640.00000,125.36340
1642.00000,133.40268
1644.00000,81.18300
1646.00000,93.11607
1648.00000,162.46693
1650.00000,146.06258
1652.00000,57.20430
1654.00000,73.33219
1656.00000,129.20120
1658.00000,121.38343
1660.00000,143.08424
1662.00000,158.52019
1664.00000,193.62331
1666.00000,236.07600
1668.00000,230.79308
1670.00000,223.12059
1672.00000,256.22906
1674.00000,254.77170
1676.00000,191.81960
1678.00000,194.46602
1680.00000,210.65137
1682.00000,204.77252
1684.00000,193.86526
1686.00000,196.83067
1688.00000,193.71579
1690.00000,222.91058
1692.00000,262.07770
1694.00000,252.28989
1696.00000,214.00479
1698.00000,258.49414
1700.00000,310.37628
1702.00000,290.78528
1704.00000,265.79770
1706.00000,294.91537
1708.00000,224.80539
1710.00000,131.28685
1712.00000,168.28622
1714.00000,193.58771
1716.00000,189.38625
1718.00000,248.27727
1720.00000,282.11444
1722.00000,135.84354
1724.00000,151.14780
1726.00000,180.86269
1728.00000,135.37155
1730.00000,147.72346
1732.00000,216.88797
1734.00000,155.22839
1736.00000,120.23151
1738.00000,206.24062
1740.00000,188.35109
1742.00000,130.10338
1744.00000,113.04449
1746.00000,104.09074
1748.00000,69.84433
1750.00000,119.59990
1752.00000,176.14348
1754.00000,160.53114
1756.00000,96.31934
1758.00000,75.27424
1760.00000,111.44753
1762.00000,78.84782
1764.00000,56.24876
1766.00000,160.06577
1768.00000,113.47852
1770.00000,102.84962
1772.00000,120.55671
1774.00000,54.34402
1776.00000,28.66719
1778.00000,127.50389
1780.00000,111.44173
1782.00000,54.23906
1784.00000,198.96368
1786.00000,147.91469
1788.00000,166.35307
1790.00000,194.52905
1792.00000,85.70908
1794.00000,142.01672
1796.00000,183.92346
1798.00000,164.65981
1800.00000,152.55037
1802.00000,178.04485
1804.00000,222.89914
1806.00000,148.48405
1808.00000,92.39561
1810.00000,145.77213
1812.00000,40.48376
1814.00000,90.86801
1816.00000,143.93425
1818.00000,112.63622
1820.00000,201.87506
1822.00000,107.08729
1824.00000,28.58974
1826.00000,89.76740
1828.00000,139.35571
1830.00000,87.98656
1832.00000,93.92907
1834.00000,171.32492
1836.00000,204.24249
1838.00000,147.52908
1840.00000,126.20323
1842.00000,60.68728
1844.00000,-1.84949
1846.00000,47.72184
1848.00000,75.24271
1850.00000,132.13994
1852.00000,177.72266
1854.00000,110.29365
1856.00000,-5.03746
1858.00000,141.28972
1860.00000,223.99637
1862.00000,187.65147
1864.00000,249.05881
1866.00000,134.19301
1868.00000,142.78278
1870.00000,179.88800
1872.00000,85.87173
1874.00000,92.68621
1876.00000,71.79192
1878.00000,107.87812
1880.00000,213.21213
1882.00000,242.08859
1884.00000,202.72134
1886.00000,120.10520
1888.00000,97.55080
1890.00000,185.16965
1892.00000,264.01230
1894.00000,258.02908
1896.00000,282.35709
1898.00000,286.34589
1900.00000,133.28168
1902.00000,119.39991
1904.00000,299.23883
1906.00000,377.83310
1908.00000,260.34210
1910.00000,334.15540
1912.00000,408.16098
1914.00000,367.98517
1916.00000,311.85947
1918.00000,354.18103
1920.00000,401.46246
1922.00000,371.26984
1924.00000,349.15979
1926.00000,406.61551
1928.00000,394.00912
1930.00000,283.01840
1932.00000,240.02211
1934.00000,283.05652
1936.00000,278.06345
1938.00000,410.46136
1940.00000,348.88824
1942.00000,258.90604
1944.00000,395.05658
1946.00000,205.35307
1948.00000,191.72197
1950.00000,334.73358
1952.00000,303.82736
1954.00000,172.69371
1956.00000,247.03389
1958.00000,328.48785
1960.00000,248.62834
1962.00000,168.11151
1964.00000,271.49628
1966.00000,232.77710
1968.00000,272.92825
1970.00000,487.55200
1972.00000,394.93420
1974.00000,306.70865
1976.00000,230.37335
1978.00000,235.72444
1980.00000,395.36938
1982.00000,311.75613
1984.00000,277.16495
1986.00000,356.69901
1988.00000,330.15143
1990.00000,201.08197
1992.00000,356.53622
1994.00000,451.69089
1996.00000,323.52075
1998.00000,257.49728
2000.00000,287.93457
2002.00000,191.65355
2004.00000,176.24850
2006.00000,263.80597
2008.00000,225.41534
2010.00000,220.90733
2012.00000,270.04660
2014.00000,233.40063
2016.00000,216.72714
2018.00000,234.77271
2020.00000,259.13132
2022.00000,271.68356
2024.00000,277.58417
2026.00000,289.20694
2028.00000,305.83069
2030.00000,299.35437
2032.00000,249.76753
2034.00000,228.73796
2036.00000,260.72815
2038.00000,292.01572
2040.00000,268.60004
2042.00000,251.12645
2044.00000,283.31165
2046.00000,306.81461
2048.00000,282.53500
2050.00000,307.93951
2052.00000,297.56116
2054.00000,284.91693
2056.00000,306.63202
2058.00000,274.89471
2060.00000,287.96768
2062.00000,332.31470
2064.00000,343.82550
2066.00000,322.20969
2068.00000,315.04977
2070.00000,335.80313
2072.00000,353.31326
2074.00000,347.37659
2076.00000,363.65717
2078.00000,374.59360
2080.00000,381.53506
2082.00000,410.40836
2084.00000,441.19052
2086.00000,424.82156
2088.00000,386.07440
2090.00000,384.13968
2092.00000,416.43417
2094.00000,381.30173
2096.00000,364.12042
2098.00000,410.12943
2100.00000,426.73096
2102.00000,405.89951
2104.00000,401.78519
2106.00000,417.17041
2108.00000,416.38412
2110.00000,419.36276
2112.00000,450.16406
2114.00000,464.12341
2116.00000,435.52856
2118.00000,434.71576
2120.00000,462.45941
2122.00000,458.96671
2124.00000,426.16614
2126.00000,431.35110
2128.00000,411.01575
2130.00000,388.93683
2132.00000,395.47745
2134.00000,405.93735
2136.00000,391.78601
2138.00000,362.08472
2140.00000,350.25845
2142.00000,382.18866
2144.00000,433.25452
2146.00000,399.51926
2148.00000,332.31534
2150.00000,337.55197
2152.00000,391.57489
2154.00000,388.63953
2156.00000,328.84659
2158.00000,323.36795
2160.00000,420.51355
2162.00000,396.04776
2164.00000,351.70926
2166.00000,362.18033
2168.00000,351.31482
2170.00000,336.87549
2172.00000,358.48914
2174.00000,380.66104
2176.00000,366.93689
2178.00000,368.53989
2180.00000,356.51511
2182.00000,334.90314
2184.00000,342.56055
2186.00000,382.62909
2188.00000,366.74561
2190.00000,327.72540
2192.00000,345.97321
2194.00000,404.40884
2196.00000,351.05298
2198.00000,301.24976
2200.00000,343.94696
2202.00000,409.53351
2204.00000,405.55396
2206.00000,372.73648
2208.00000,360.31409
2210.00000,385.30258
2212.00000,432.98380
2214.00000,414.91815
2216.00000,370.54901
2218.00000,379.76602
2220.00000,424.07397
2222.00000,398.99344
2224.00000,378.67938
2226.00000,391.34833
2228.00000,373.48236
2230.00000,386.88754
2232.00000,437.45844
2234.00000,441.00684
2236.00000,387.02997
2238.00000,438.00635
2240.00000,464.71802
2242.00000,451.08560
2244.00000,452.68054
2246.00000,433.61975
2248.00000,421.88583
2250.00000,453.14505
2252.00000,485.55038
2254.00000,445.71664
2256.00000,411.64664
2258.00000,405.53445
2260.00000,410.99338
2262.00000,417.59476
2264.00000,425.07529
2266.00000,406.19778
2268.00000,396.43851
2270.00000,423.46240
2272.00000,416.68280
2274.00000,385.52420
2276.00000,384.45190
2278.00000,402.15652
2280.00000,372.65353
2282.00000,396.68564
2284.00000,413.64316
2286.00000,384.95242
2288.00000,380.54907
2290.00000,383.64832
2292.00000,388.43842
2294.00000,384.15820
2296.00000,358.83905
2298.00000,329.92935
2300.00000,322.28629
2302.00000,330.87585
2304.00000,314.14093
2306.00000,256.88626
2308.00000,302.83005
2310.00000,319.02496
2312.00000,237.81433
2314.00000,241.23099
2316.00000,249.27797
2318.00000,216.58315
2320.00000,213.30708
2322.00000,282.58167
2324.00000,262.85864
2326.00000,244.29553
2328.00000,274.42279
2330.00000,277.57916
2332.00000,223.14290
2334.00000,215.54718
2336.00000,242.23848
2338.00000,237.24138
2340.00000,226.09776
2342.00000,249.08131
2344.00000,245.35872
2346.00000,198.28265
2348.00000,199.74884
2350.00000,266.24957
2352.00000,221.34325
2354.00000,164.87550
2356.00000,283.23911
2358.00000,255.63991
2360.00000,215.73871
2362.00000,256.38278
2364.00000,279.94827
2366.00000,229.48486
2368.00000,255.87566
2370.00000,282.78220
2372.00000,237.49240
2374.00000,253.61002
2376.00000,270.20804
2378.00000,261.04013
2380.00000,264.50842
2382.00000,292.23007
2384.00000,251.84460
2386.00000,257.17728
2388.00000,291.62738
2390.00000,253.73001
2392.00000,262.45654
2394.00000,284.33807
2396.00000,273.94525
2398.00000,255.91455
2400.00000,281.09851
2402.00000,286.96851
2404.00000,265.43323
2406.00000,258.57178
2408.00000,285.55988
2410.00000,300.49872
2412.00000,273.59406
2414.00000,254.01184
2416.00000,290.40820
2418.00000,281.87180
2420.00000,238.25273
2422.00000,233.13641
2424.00000,265.73398
2426.00000,224.14018
2428.00000,219.01422
2430.00000,220.27257
2432.00000,194.79424
2434.00000,252.72989
2436.00000,242.67769
2438.00000,202.74954
2440.00000,211.35101
2442.00000,226.13318
2444.00000,222.36934
2446.00000,184.36258
2448.00000,164.47069
2450.00000,195.89493
2452.00000,160.63240
2454.00000,141.81241
2456.00000,173.49487
2458.00000,193.64175
2460.00000,175.49634
2462.00000,180.07259
2464.00000,199.42665
2466.00000,189.36909
2468.00000,155.37459
2470.00000,146.81699
2472.00000,148.69550
2474.00000,138.63065
2476.00000,123.88285
2478.00000,104.73924
2480.00000,129.47156
2482.00000,130.37810
2484.00000,53.78633
2486.00000,76.16224
2488.00000,78.71680
2490.00000,54.33071
2492.00000,73.57969
2494.00000,86.66416
2496.00000,125.36962
2498.00000,150.92064
2500.00000,132.50278
2502.00000,120.29369
2504.00000,133.12733
2506.00000,88.17227
2508.00000,70.86037
2510.00000,192.42537
2512.00000,154.83331
2514.00000,133.68347
2516.00000,196.62491
2518.00000,197.28345
2520.00000,139.26128
2522.00000,172.43376
2524.00000,219.84712
2526.00000,172.60358
2528.00000,143.46635
2530.00000,177.93407
2532.00000,212.29004
2534.00000,212.11681
2536.00000,226.92805
2538.00000,253.80878
2540.00000,211.89948
2542.00000,174.20876
2544.00000,242.27979
2546.00000,216.13255
2548.00000,150.81754
2550.00000,183.56221
2552.00000,272.32654
2554.00000,192.27266
2556.00000,139.46533
2558.00000,212.83524
2560.00000,287.02533
2562.00000,223.02296
2564.00000,198.64322
2566.00000,236.17372
2568.00000,265.08734
2570.00000,263.61490
2572.00000,255.67407
2574.00000,230.74179
2576.00000,199.06664
2578.00000,198.61736
2580.00000,233.25607
2582.00000,223.84705
2584.00000,175.36603
2586.00000,161.64894
2588.00000,197.15639
2590.00000,175.41933
2592.00000,186.56128
2594.00000,260.66940
2596.00000,233.92606
2598.00000,159.81586
2600.00000,124.01775
2602.00000,138.58630
2604.00000,136.56229
2606.00000,71.70298
2608.00000,111.43188
2610.00000,195.16856
2612.00000,150.73528
2614.00000,106.82021
2616.00000,161.10678
2618.00000,155.20917
2620.00000,55.64914
2622.00000,138.87346
2624.00000,197.26163
2626.00000,157.88721
2628.00000,133.39949
2630.00000,182.53079
2632.00000,118.49135
2634.00000,97.41059
2636.00000,157.40732
2638.00000,142.66296
2640.00000,121.75665
2642.00000,151.75630
2644.00000,216.02171
2646.00000,245.50153
2648.00000,199.12892
2650.00000,186.05035
2652.00000,194.58989
2654.00000,164.54272
2656.00000,141.18317
2658.00000,213.81509
2660.00000,212.27223
2662.00000,115.75876
2664.00000,134.71057
2666.00000,190.64009
2668.00000,122.18653
2670.00000,45.71049
2672.00000,136.42821
2674.00000,164.35382
2676.00000,105.28674
2678.00000,102.35480
2680.00000,171.10475
2682.00000,112.84734
2684.00000,108.76630
2686.00000,188.48628
2688.00000,211.32797
2690.00000,121.60349
2692.00000,140.57999
2694.00000,155.72971
2696.00000,82.55401
2698.00000,53.20268
2700.00000,110.95129
2702.00000,60.23569
2704.00000,13.72769
2706.00000,145.18474
2708.00000,154.33913
2710.00000,91.15707
2712.00000,101.47124
2714.00000,178.42787
2716.00000,186.47859
2718.00000,251.49585
2720.00000,358.48938
2722.00000,358.97916
2724.00000,236.37595
2726.00000,323.82050
2728.00000,371.08246
2730.00000,279.18765
2732.00000,273.37341
2734.00000,294.64368
2736.00000,265.97540
2738.00000,247.57307
2740.00000,251.98021
2742.00000,116.26039
2744.00000,76.45464
2746.00000,152.94151
2748.00000,151.53796
2750.00000,22.68534
2752.00000,104.71822
2754.00000,130.11473
2756.00000,-11.40104
2758.00000,-5.51168
2760.00000,4.60809
2762.00000,-2.20717
2764.00000,1.20806
2766.00000,2.69966
2768.00000,-5.54190
2770.00000,29.78296
2772.00000,114.49255
2774.00000,142.37054
2776.00000,31.74927
2778.00000,143.65645
2780.00000,285.73810
2782.00000,249.59984
2784.00000,282.38623
2786.00000,386.00351
2788.00000,388.33328
2790.00000,281.18765
2792.00000,234.34863
2794.00000,259.94699
2796.00000,333.47183
2798.00000,373.82278
2800.00000,350.74500
2802.00000,385.80814
2804.00000,438.43808
2806.00000,496.01410
2808.00000,587.03571
2810.00000,707.27478
2812.00000,833.50549
2814.00000,937.18665
2816.00000,1041.17029
2818.00000,1199.20789
2820.00000,1378.80603
2822.00000,1624.48718
2824.00000,1817.65283
2826.00000,1856.56763
2828.00000,2061.84106
2830.00000,2286.77515
2832.00000,2327.87207
2834.00000,2316.76758
2836.00000,2587.02808
2838.00000,2650.34375
2840.00000,2627.99048
2842.00000,2757.59912
2844.00000,2735.62988
2846.00000,2608.81348
2848.00000,2543.85083
2850.00000,2416.15405
2852.00000,2057.52515
2854.00000,1998.80762
2856.00000,1896.60193
2858.00000,1670.77466
2860.00000,1606.60535
2862.00000,1459.05945
2864.00000,1269.46802
2866.00000,1231.50134
2868.00000,1291.61633
2870.00000,1115.42297
2872.00000,1030.91199
2874.00000,1068.89563
2876.00000,1126.13184
2878.00000,1250.76440
2880.00000,1319.97644
2882.00000,1404.96619
2884.00000,1546.45850
2886.00000,1627.96436
2888.00000,1593.40173
2890.00000,1732.60693
2892.00000,1922.29541
2894.00000,1902.56592
2896.00000,1998.81433
2898.00000,2154.56519
2900.00000,2189.19922
2902.00000,2167.06128
2904.00000,2320.47632
2906.00000,2234.32300
2908.00000,2153.41333
2910.00000,2296.45972
2912.00000,2336.79102
2914.00000,2225.02344
2916.00000,2327.44409
2918.00000,2466.41846
2920.00000,2296.63379
2922.00000,2515.80396
2924.00000,2722.26709
2926.00000,2732.61353
2928.00000,2756.18481
2930.00000,2782.89014
2932.00000,3042.48486
2934.00000,3195.17358
2936.00000,3094.61133
2938.00000,3297.48877
2940.00000,3662.30713
2942.00000,3745.69409
2944.00000,3669.26880
2946.00000,3939.81934
2948.00000,4157.73047
2950.00000,4231.79590
2952.00000,4328.77881
2954.00000,4477.04443
2956.00000,4410.69385
2958.00000,4425.18262
2960.00000,4513.48682
2962.00000,4397.59814
2964.00000,4114.36719
2966.00000,4117.06299
2968.00000,4093.02954
2970.00000,3814.10327
2972.00000,3712.30005
2974.00000,3660.76050
2976.00000,3458.51758
2978.00000,3187.52393
2980.00000,3053.09326
2982.00000,2902.88159
2984.00000,2770.89209
2986.00000,2685.27441
2988.00000,2575.58472
2990.00000,2426.94922
2992.00000,2514.70386
2994.00000,2434.76709
2996.00000,2096.28540
2998.00000,2282.00269
3000.00000,2163.04712
3002.00000,1976.76440
3004.00000,2033.87830
3006.00000,1891.12354
3008.00000,1718.96399
3010.00000,1565.36780
3012.00000,1430.73035
3014.00000,1379.50281
3016.00000,1423.24451
3018.00000,1336.77869
3020.00000,1278.85852
3022.00000,1342.45276
3024.00000,1057.22180
3026.00000,994.31329
3028.00000,1122.69775
3030.00000,1093.73267
3032.00000,984.42316
3034.00000,873.65637
3036.00000,835.10999
3038.00000,758.64691
3040.00000,563.38464
3042.00000,695.29523
3044.00000,771.37268
3046.00000,652.19360
3048.00000,649.10046
3050.00000,700.60974
3052.00000,518.87769
3054.00000,352.41052
3056.00000,442.37817
3058.00000,415.02856
3060.00000,517.14355
3062.00000,503.30054
3064.00000,245.94495
3066.00000,167.21419
3068.00000,162.47212
3070.00000,231.93585
3072.00000,221.63480
3074.00000,9.79392
3076.00000,108.16699
3078.00000,107.98206
3080.00000,1.11035
3082.00000,95.70999
3084.00000,54.87497
3086.00000,125.71426
3088.00000,274.63654
3090.00000,229.04808
3092.00000,20.60309
3094.00000,88.81818
3096.00000,104.19108
3098.00000,11.58186
3100.00000,258.33472
3102.00000,106.17431
3104.00000,52.96957
3106.00000,245.95346
3108.00000,129.58157
3110.00000,-22.19019
3112.00000,243.83058
3114.00000,378.52054
3116.00000,9.09316
3118.00000,214.66072
3120.00000,358.59854
3122.00000,220.92125
3124.00000,209.86668
3126.00000,434.83649
3128.00000,195.63223
3130.00000,205.78990
3132.00000,471.71005
3134.00000,76.84021
3136.00000,247.09164
3138.00000,301.05756
3140.00000,185.70874
3142.00000,514.38202
3144.00000,373.82077
3146.00000,352.35406
3148.00000,471.16824
3150.00000,382.65439
3152.00000,450.93216
3154.00000,438.15210
3156.00000,289.67114
3158.00000,222.73373
3160.00000,366.99319
3162.00000,405.70212
3164.00000,273.59433
3166.00000,395.83728
3168.00000,823.44440
3170.00000,282.64728
3172.00000,253.79219
3174.00000,611.88660
3176.00000,198.77156
3178.00000,284.92957
3180.00000,327.90637
3182.00000,265.95276
3184.00000,456.00830
3186.00000,592.85956
3188.00000,332.51129
3190.00000,169.87845
3192.00000,297.59500
3194.00000,245.87675
3196.00000,404.72891
3198.00000,436.70172
3200.00000,196.32112
