300.00000,881.43536
302.00000,773.38702
304.00000,683.46393
306.00000,617.13654
308.00000,511.14456
310.00000,383.55325
312.00000,313.51419
314.00000,307.18332
316.00000,284.46619
318.00000,241.26196
320.00000,209.38373
322.00000,201.69131
324.00000,240.84818
326.00000,282.90659
328.00000,279.27722
330.00000,242.61443
332.00000,230.44655
334.00000,180.68306
336.00000,128.18372
338.00000,118.39793
340.00000,118.61497
342.00000,145.93910
344.00000,206.97542
346.00000,279.66547
348.00000,341.43753
350.00000,406.19550
352.00000,490.65479
354.00000,581.41339
356.00000,629.37134
358.00000,599.88251
360.00000,561.52911
362.00000,508.01834
364.00000,422.16940
366.00000,329.30573
368.00000,266.58673
370.00000,241.16217
372.00000,226.09557
374.00000,199.09798
376.00000,169.85234
378.00000,146.30418
380.00000,134.51111
382.00000,134.87846
384.00000,136.37721
386.00000,120.34729
388.00000,98.27364
390.00000,72.88485
392.00000,57.38109
394.00000,81.91273
396.00000,96.13894
398.00000,74.95863
400.00000,46.91263
402.00000,52.65631
404.00000,73.58946
406.00000,55.87920
408.00000,44.50356
410.00000,75.95744
412.00000,65.33834
414.00000,78.25974
416.00000,112.00830
418.00000,128.64888
420.00000,133.76167
422.00000,152.16013
424.00000,159.82489
426.00000,150.09814
428.00000,131.77765
430.00000,93.48250
432.00000,67.70152
434.00000,81.93361
436.00000,93.68124
438.00000,50.08196
440.00000,55.09192
442.00000,51.47318
444.00000,50.41994
446.00000,99.61555
448.00000,92.33897
450.00000,85.39997
452.00000,107.23214
454.00000,138.87231
456.00000,160.94582
458.00000,139.32877
460.00000,103.08867
462.00000,94.71602
464.00000,107.92216
466.00000,93.66905
468.00000,108.71670
470.00000,108.06645
472.00000,68.08570
474.00000,77.29784
476.00000,64.39132
478.00000,79.53767
480.00000,114.80934
482.00000,89.86459
484.00000,64.23368
486.00000,67.36545
488.00000,70.85007
490.00000,67.91177
492.00000,92.84834
494.00000,65.56485
496.00000,57.23550
498.00000,83.80741
500.00000,63.93896
502.00000,55.42422
504.00000,52.33296
506.00000,45.38184
508.00000,46.26889
510.00000,57.08179
512.00000,52.65955
514.00000,59.85912
516.00000,79.63604
518.00000,83.81142
520.00000,126.12207
522.00000,173.38966
524.00000,205.61122
526.00000,248.80748
528.00000,323.56003
530.00000,405.82730
532.00000,442.56436
534.00000,447.44724
536.00000,475.09918
538.00000,449.73651
540.00000,393.42374
542.00000,344.69888
544.00000,293.19608
546.00000,214.68553
548.00000,173.33409
550.00000,169.71585
552.00000,165.66484
554.00000,151.73262
556.00000,138.54146
558.00000,149.66496
560.00000,169.85040
562.00000,189.47028
564.00000,257.62274
566.00000,284.84628
568.00000,302.12967
570.00000,367.60083
572.00000,429.36993
574.00000,456.98416
576.00000,446.95404
578.00000,416.52859
580.00000,393.62894
582.00000,392.19626
584.00000,363.07516
586.00000,307.44888
588.00000,260.41675
590.00000,231.14563
592.00000,219.47981
594.00000,206.48004
596.00000,185.12611
598.00000,162.55952
600.00000,134.62073
602.00000,127.48535
604.00000,145.86533
606.00000,154.93347
608.00000,124.02405
610.00000,113.29036
612.00000,117.73414
614.00000,122.13274
616.00000,133.32701
618.00000,121.46494
620.00000,102.09945
622.00000,89.45171
624.00000,82.78365
626.00000,83.82471
628.00000,91.72814
630.00000,82.01559
632.00000,69.94727
634.00000,89.23625
636.00000,75.98952
638.00000,74.56224
640.00000,77.21726
642.00000,50.07483
644.00000,50.70684
646.00000,63.14818
648.00000,71.56636
650.00000,87.85336
652.00000,126.63391
654.00000,166.67493
656.00000,223.72479
658.00000,311.33270
660.00000,436.33157
662.00000,608.10150
664.00000,747.66162
666.00000,806.58868
668.00000,793.43878
670.00000,737.48071
672.00000,649.47528
674.00000,556.52234
676.00000,471.20630
678.00000,389.76733
680.00000,323.28424
682.00000,286.66541
684.00000,258.46246
686.00000,223.54361
688.00000,197.05431
690.00000,152.41859
692.00000,120.46607
694.00000,122.85751
696.00000,129.64146
698.00000,106.81631
700.00000,95.43542
702.00000,81.21913
704.00000,55.50785
706.00000,68.78943
708.00000,52.77826
710.00000,81.42384
712.00000,136.49902
714.00000,122.63985
716.00000,182.43166
718.00000,239.74577
720.00000,284.24075
722.00000,374.99274
724.00000,485.31372
726.00000,591.04651
728.00000,668.54559
730.00000,730.84027
732.00000,818.75708
734.00000,921.15833
736.00000,961.57947
738.00000,949.17908
740.00000,952.54065
742.00000,981.51202
744.00000,1015.52423
746.00000,1021.51733
748.00000,980.34302
750.00000,899.57477
752.00000,803.55011
754.00000,733.04425
756.00000,651.60046
758.00000,519.32062
760.00000,412.76370
762.00000,351.66037
764.00000,305.11499
766.00000,254.25664
768.00000,212.26308
770.00000,171.19882
772.00000,157.40886
774.00000,156.92905
776.00000,132.49838
778.00000,108.97425
780.00000,116.70213
782.00000,126.30167
784.00000,103.16601
786.00000,67.63063
788.00000,58.05764
790.00000,78.17262
792.00000,98.53220
794.00000,91.01790
796.00000,70.22742
798.00000,81.25250
800.00000,104.89169
802.00000,127.10032
804.00000,174.60393
806.00000,154.26962
808.00000,144.07251
810.00000,203.27008
812.00000,294.43030
814.00000,434.19907
816.00000,600.25763
818.00000,838.76013
820.00000,1186.94690
822.00000,1581.48193
824.00000,2006.93872
826.00000,2417.69043
828.00000,2707.54614
830.00000,2777.68799
832.00000,2653.46558
834.00000,2393.80566
836.00000,2081.75073
838.00000,1794.11548
840.00000,1576.16064
842.00000,1477.91162
844.00000,1443.91333
846.00000,1426.54724
848.00000,1436.80115
850.00000,1429.05127
852.00000,1385.72852
854.00000,1302.94666
856.00000,1198.01318
858.00000,1117.14111
860.00000,1057.31384
862.00000,978.62555
864.00000,886.84967
866.00000,838.12292
868.00000,809.97156
870.00000,723.51349
872.00000,607.28052
874.00000,530.06720
876.00000,441.40292
878.00000,376.78555
880.00000,341.17813
882.00000,325.02905
884.00000,338.42139
886.00000,352.27658
888.00000,326.02994
890.00000,292.07620
892.00000,299.71030
894.00000,296.06146
896.00000,275.63187
898.00000,255.47687
900.00000,234.15337
902.00000,197.81287
904.00000,185.06259
906.00000,200.24088
908.00000,202.22043
910.00000,165.99551
912.00000,146.19412
914.00000,155.34702
916.00000,161.22415
918.00000,154.28291
920.00000,165.50867
922.00000,149.95749
924.00000,121.55624
926.00000,115.77832
928.00000,123.67645
930.00000,93.72526
932.00000,57.06535
934.00000,51.30398
936.00000,67.95853
938.00000,67.95573
940.00000,57.99804
942.00000,46.45607
944.00000,65.69708
946.00000,117.95286
948.00000,88.15218
950.00000,101.85698
952.00000,157.48744
954.00000,165.28331
956.00000,185.69879
958.00000,201.71452
960.00000,227.00856
962.00000,267.48975
964.00000,286.05386
966.00000,267.87274
968.00000,237.58206
970.00000,211.54463
972.00000,176.65927
974.00000,115.37110
976.00000,66.79901
978.00000,78.12994
980.00000,123.72942
982.00000,118.28327
984.00000,71.73814
986.00000,76.26683
988.00000,130.49327
990.00000,141.16640
992.00000,85.68323
994.00000,62.91618
996.00000,73.70047
998.00000,79.02753
1000.00000,96.12964
1002.00000,111.08380
1004.00000,106.03179
1006.00000,103.72736
1008.00000,127.85839
1010.00000,130.54181
1012.00000,106.06325
1014.00000,97.50742
1016.00000,117.32806
1018.00000,123.07735
1020.00000,146.30347
1022.00000,180.64032
1024.00000,212.40186
1026.00000,248.65244
1028.00000,289.05746
1030.00000,302.19348
1032.00000,308.91391
1034.00000,325.62598
1036.00000,302.33466
1038.00000,246.04256
1040.00000,212.33795
1042.00000,206.22017
1044.00000,174.78479
1046.00000,120.59052
1048.00000,98.57529
1050.00000,89.74023
1052.00000,74.44082
1054.00000,110.32179
1056.00000,106.54843
1058.00000,71.73762
1060.00000,69.64108
1062.00000,94.26063
1064.00000,59.48574
1066.00000,43.63845
1068.00000,63.57537
1070.00000,61.57632
1072.00000,48.26925
1074.00000,41.92025
1076.00000,46.64516
1078.00000,53.10704
1080.00000,47.77392
1082.00000,33.09801
1084.00000,74.49327
1086.00000,116.35303
1088.00000,73.95425
1090.00000,47.15349
1092.00000,78.32452
1094.00000,123.41703
1096.00000,116.80843
1098.00000,59.48716
1100.00000,51.44892
1102.00000,49.14616
1104.00000,32.86061
1106.00000,40.31890
1108.00000,44.83887
1110.00000,55.50363
1112.00000,84.15519
1114.00000,121.16396
1116.00000,140.50359
1118.00000,133.24872
1120.00000,132.95424
1122.00000,146.94379
1124.00000,160.84222
1126.00000,197.18585
1128.00000,204.35263
1130.00000,167.35028
1132.00000,134.90334
1134.00000,149.41681
1136.00000,149.30025
1138.00000,151.97495
1140.00000,159.02596
1142.00000,145.09215
1144.00000,177.26514
1146.00000,231.11906
1148.00000,256.88443
1150.00000,253.13391
1152.00000,262.38480
1154.00000,261.85641
1156.00000,266.31372
1158.00000,262.85022
1160.00000,232.42470
1162.00000,265.23218
1164.00000,232.83022
1166.00000,173.92575
1168.00000,183.21631
1170.00000,142.36313
1172.00000,137.38292
1174.00000,136.00609
1176.00000,106.15360
1178.00000,100.68055
1180.00000,72.71655
1182.00000,42.60008
1184.00000,37.89381
1186.00000,51.96516
1188.00000,61.71734
1190.00000,55.10522
1192.00000,44.17564
1194.00000,44.95134
1196.00000,56.50071
1198.00000,64.86498
1200.00000,73.80145
1202.00000,98.60521
1204.00000,150.63374
1206.00000,222.71400
1208.00000,286.40436
1210.00000,362.32608
1212.00000,506.08704
1214.00000,738.10815
1216.00000,975.78973
1218.00000,1132.02661
1220.00000,1248.07068
1222.00000,1353.53162
1224.00000,1257.81177
1226.00000,1036.73889
1228.00000,793.80731
1230.00000,575.40735
1232.00000,405.63611
1234.00000,283.11157
1236.00000,197.00334
1238.00000,146.85281
1240.00000,136.73897
1242.00000,151.08366
1244.00000,172.91190
1246.00000,195.55359
1248.00000,200.09401
1250.00000,160.79716
1252.00000,131.99574
1254.00000,134.17342
1256.00000,126.93890
1258.00000,79.28256
1260.00000,57.39511
1262.00000,52.40704
1264.00000,42.81271
1266.00000,29.54020
1268.00000,24.58629
1270.00000,42.80367
1272.00000,98.36461
1274.00000,175.99780
1276.00000,239.73483
1278.00000,294.56122
1280.00000,381.26334
1282.00000,461.31125
1284.00000,471.72400
1286.00000,450.72342
1288.00000,458.02939
1290.00000,435.12775
1292.00000,381.13367
1294.00000,391.51514
1296.00000,384.88818
1298.00000,343.19202
1300.00000,296.40341
1302.00000,280.98096
1304.00000,303.17514
1306.00000,256.55386
1308.00000,206.89410
1310.00000,228.17802
1312.00000,241.82330
1314.00000,213.32655
1316.00000,187.29865
1318.00000,184.47649
1320.00000,191.97760
1322.00000,212.53127
1324.00000,159.17250
1326.00000,118.20020
1328.00000,129.32210
1330.00000,60.22505
1332.00000,40.84129
1334.00000,37.90324
1336.00000,21.00323
1338.00000,33.99746
1340.00000,45.95773
1342.00000,43.40471
1344.00000,36.20448
1346.00000,30.81976
1348.00000,25.30482
1350.00000,49.62495
1352.00000,57.82958
1354.00000,47.88805
1356.00000,74.46214
1358.00000,111.13460
1360.00000,150.59975
1362.00000,174.85722
1364.00000,178.91408
1366.00000,201.65862
1368.00000,252.52371
1370.00000,220.63065
1372.00000,143.84277
1374.00000,167.88301
1376.00000,137.92982
1378.00000,66.40536
1380.00000,39.75068
1382.00000,81.68781
1384.00000,117.58103
1386.00000,80.51998
1388.00000,46.15263
1390.00000,58.80816
1392.00000,55.27132
1394.00000,46.91125
1396.00000,38.78635
1398.00000,53.85384
1400.00000,84.83714
1402.00000,66.82073
1404.00000,86.67399
1406.00000,90.30747
1408.00000,40.54195
1410.00000,33.57334
1412.00000,54.83854
1414.00000,50.24434
1416.00000,21.26701
1418.00000,4.70101
1420.00000,-0.52126
1422.00000,30.27548
1424.00000,36.12626
1426.00000,40.30592
1428.00000,149.70979
1430.00000,154.77155
1432.00000,163.19318
1434.00000,286.95657
1436.00000,443.51184
1438.00000,541.13220
1440.00000,682.16388
1442.00000,851.60596
1444.00000,981.20563
1446.00000,1095.94861
1448.00000,1181.70166
1450.00000,1253.41760
1452.00000,1264.47290
1454.00000,1196.06580
1456.00000,1228.18750
1458.00000,1272.84558
1460.00000,1249.48413
1462.00000,1189.20703
1464.00000,1163.44421
1466.00000,1204.11377
1468.00000,1228.19031
1470.00000,1190.94800
1472.00000,1164.91357
1474.00000,1211.77417
1476.00000,1170.85132
1478.00000,1063.27966
1480.00000,998.81580
1482.00000,897.47992
1484.00000,729.86877
1486.00000,613.69238
1488.00000,523.95013
1490.00000,343.67172
1492.00000,306.75049
1494.00000,266.43024
1496.00000,183.84528
1498.00000,159.92586
1500.00000,140.24387
1502.00000,130.65854
1504.00000,105.18808
1506.00000,76.93349
1508.00000,114.05441
1510.00000,179.63495
1512.00000,153.62531
1514.00000,67.11547
1516.00000,55.10001
1518.00000,119.70367
1520.00000,148.74300
1522.00000,97.47758
1524.00000,47.89419
1526.00000,86.47095
1528.00000,78.57365
1530.00000,43.43360
1532.00000,29.76945
1534.00000,28.51446
1536.00000,27.14091
1538.00000,18.54502
1540.00000,19.33978
1542.00000,27.66524
1544.00000,23.23238
1546.00000,60.01532
1548.00000,67.72463
1550.00000,44.03316
1552.00000,61.17682
1554.00000,70.37825
1556.00000,81.65061
1558.00000,62.52542
1560.00000,50.97046
1562.00000,139.58725
1564.00000,58.93331
1566.00000,23.97084
1568.00000,90.48459
1570.00000,29.07136
1572.00000,29.11303
1574.00000,92.18159
1576.00000,121.27602
1578.00000,86.15154
1580.00000,69.75206
1582.00000,115.87859
1584.00000,126.88318
1586.00000,93.44131
1588.00000,115.82890
1590.00000,127.15065
1592.00000,120.34396
1594.00000,111.95968
1596.00000,124.23694
1598.00000,164.86200
1600.00000,118.49473
1602.00000,84.61794
1604.00000,124.45369
1606.00000,132.33809
1608.00000,138.86205
1610.00000,153.57814
1612.00000,177.15514
1614.00000,182.15324
1616.00000,131.06738
1618.00000,194.77072
1620.00000,247.05956
1622.00000,184.91301
1624.00000,163.27299
1626.00000,173.93269
1628.00000,161.07837
1630.00000,150.32614
1632.00000,162.54108
1634.00000,103.49265
1636.00000,98.37415
1638.00000,129.75131
1640.00000,107.15041
1642.00000,60.93928
1644.00000,89.59200
1646.00000,127.81054
1648.00000,107.84278
1650.00000,84.48195
1652.00000,145.05064
1654.00000,100.66437
1656.00000,32.83421
1658.00000,67.31622
1660.00000,68.44079
1662.00000,38.82884
1664.00000,15.53165
1666.00000,28.42856
1668.00000,57.90455
1670.00000,26.60992
1672.00000,30.75634
1674.00000,58.04063
1676.00000,36.54904
1678.00000,13.31676
1680.00000,65.14405
1682.00000,92.95047
1684.00000,83.23988
1686.00000,129.32254
1688.00000,131.26178
1690.00000,139.20885
1692.00000,159.22330
1694.00000,139.44092
1696.00000,94.15247
1698.00000,96.22440
1700.00000,131.67169
1702.00000,111.97062
1704.00000,36.95963
1706.00000,114.65084
1708.00000,135.65845
1710.00000,97.97210
1712.00000,150.10631
1714.00000,165.55048
1716.00000,139.44554
1718.00000,140.10719
1720.00000,187.70357
1722.00000,227.40958
1724.00000,240.22910
1726.00000,258.12357
1728.00000,224.92981
1730.00000,143.71094
1732.00000,206.28885
1734.00000,191.63568
1736.00000,162.32375
1738.00000,210.99831
1740.00000,194.00876
1742.00000,172.42067
1744.00000,235.86823
1746.00000,252.62752
1748.00000,125.44504
1750.00000,152.60237
1752.00000,236.40923
1754.00000,206.27707
1756.00000,137.56201
1758.00000,220.17603
1760.00000,158.58171
1762.00000,67.59219
1764.00000,69.64426
1766.00000,90.04938
1768.00000,122.66148
1770.00000,75.61432
1772.00000,60.15213
1774.00000,131.72116
1776.00000,106.50839
1778.00000,111.04565
1780.00000,92.59270
1782.00000,50.53450
1784.00000,96.19491
1786.00000,146.73036
1788.00000,95.20466
1790.00000,70.00495
1792.00000,124.29269
1794.00000,37.28924
1796.00000,33.80711
1798.00000,35.84209
1800.00000,13.75507
1802.00000,107.86765
1804.00000,139.56226
1806.00000,97.15587
1808.00000,121.79932
1810.00000,221.17363
1812.00000,182.22055
1814.00000,184.97791
1816.00000,280.02695
1818.00000,296.85620
1820.00000,177.46295
1822.00000,299.02606
1824.00000,259.96893
1826.00000,141.15292
1828.00000,254.17638
1830.00000,186.63007
1832.00000,160.65738
1834.00000,228.44122
1836.00000,255.31740
1838.00000,220.16293
1840.00000,245.03404
1842.00000,215.01631
1844.00000,172.93985
1846.00000,232.98599
1848.00000,221.24487
1850.00000,211.05501
1852.00000,225.51941
1854.00000,192.06392
1856.00000,117.38058
1858.00000,220.94164
1860.00000,290.59286
1862.00000,212.36586
1864.00000,163.28708
1866.00000,230.13199
1868.00000,258.05008
1870.00000,285.79984
1872.00000,374.19333
1874.00000,372.70309
1876.00000,250.84294
1878.00000,236.43463
1880.00000,256.41562
1882.00000,122.67008
1884.00000,201.80087
1886.00000,164.37915
1888.00000,86.42195
1890.00000,132.05154
1892.00000,18.13746
1894.00000,58.26283
1896.00000,202.87114
1898.00000,239.63628
1900.00000,166.00749
1902.00000,172.55461
1904.00000,265.36069
1906.00000,291.70636
1908.00000,223.27202
1910.00000,252.73120
1912.00000,250.86195
1914.00000,237.53729
1916.00000,265.75711
1918.00000,289.28531
1920.00000,298.77286
1922.00000,284.98593
1924.00000,313.40579
1926.00000,355.99048
1928.00000,261.78619
1930.00000,425.17383
1932.00000,470.92810
1934.00000,293.15677
1936.00000,394.58008
1938.00000,284.76563
1940.00000,189.77194
1942.00000,344.38531
1944.00000,444.43112
1946.00000,111.27888
1948.00000,243.23082
1950.00000,373.90701
1952.00000,219.16226
1954.00000,499.99509
1956.00000,221.05333
1958.00000,308.64536
1960.00000,581.24988
1962.00000,208.27023
1964.00000,511.98904
1966.00000,387.60291
1968.00000,118.87200
1970.00000,304.16931
1972.00000,208.03876
1974.00000,105.63765
1976.00000,239.73276
1978.00000,350.87180
1980.00000,203.00343
1982.00000,256.34912
1984.00000,181.36827
1986.00000,169.72154
1988.00000,348.84988
1990.00000,191.39417
1992.00000,156.49611
1994.00000,207.27713
1996.00000,194.27989
1998.00000,179.57863
2000.00000,129.38768
2002.00000,114.71494
2004.00000,160.21973
2006.00000,130.01857
2008.00000,128.19708
2010.00000,139.99174
2012.00000,146.94049
2014.00000,160.26979
2016.00000,147.20738
2018.00000,123.90417
2020.00000,122.43652
2022.00000,125.84965
2024.00000,76.55901
2026.00000,51.33048
2028.00000,63.00394
2030.00000,72.36735
2032.00000,59.75293
2034.00000,41.79357
2036.00000,66.44647
2038.00000,89.21935
2040.00000,40.26155
2042.00000,30.10997
2044.00000,56.17107
2046.00000,72.55862
2048.00000,55.97210
2050.00000,22.68563
2052.00000,40.62508
2054.00000,80.25091
2056.00000,77.18661
2058.00000,49.83115
2060.00000,70.09293
2062.00000,80.48317
2064.00000,55.92052
2066.00000,64.57207
2068.00000,67.61308
2070.00000,67.84854
2072.00000,66.03143
2074.00000,51.25419
2076.00000,45.51287
2078.00000,43.22272
2080.00000,32.02731
2082.00000,22.24225
2084.00000,40.75130
2086.00000,49.95631
2088.00000,71.40473
2090.00000,108.10854
2092.00000,95.25499
2094.00000,61.03785
2096.00000,48.05569
2098.00000,52.36964
2100.00000,46.80684
2102.00000,59.89037
2104.00000,57.66786
2106.00000,51.74088
2108.00000,75.33378
2110.00000,75.63401
2112.00000,53.05294
2114.00000,57.34229
2116.00000,88.32171
2118.00000,66.12522
2120.00000,47.70764
2122.00000,76.03855
2124.00000,109.03307
2126.00000,84.84971
2128.00000,86.47648
2130.00000,108.78838
2132.00000,117.54674
2134.00000,106.67204
2136.00000,77.05753
2138.00000,72.81821
2140.00000,100.09898
2142.00000,113.81508
2144.00000,80.27319
2146.00000,56.24949
2148.00000,63.84949
2150.00000,95.59329
2152.00000,138.16937
2154.00000,106.74780
2156.00000,81.00517
2158.00000,93.77628
2160.00000,59.53240
2162.00000,52.07059
2164.00000,57.26688
2166.00000,68.51387
2168.00000,102.83643
2170.00000,107.56740
2172.00000,79.42262
2174.00000,69.84531
2176.00000,90.33693
2178.00000,67.38608
2180.00000,60.08080
2182.00000,88.70177
2184.00000,107.05239
2186.00000,79.01806
2188.00000,68.54221
2190.00000,73.30595
2192.00000,79.26324
2194.00000,90.45457
2196.00000,71.66526
2198.00000,65.95685
2200.00000,75.60566
2202.00000,73.83035
2204.00000,99.08829
2206.00000,104.56093
2208.00000,93.88442
2210.00000,101.73164
2212.00000,112.69440
2214.00000,107.40038
2216.00000,117.03153
2218.00000,145.57945
2220.00000,139.41640
2222.00000,106.64958
2224.00000,113.08747
2226.00000,127.05605
2228.00000,79.36607
2230.00000,86.08477
2232.00000,110.38274
2234.00000,114.67834
2236.00000,119.07255
2238.00000,126.23090
2240.00000,81.22028
2242.00000,71.20740
2244.00000,119.58843
2246.00000,66.21727
2248.00000,32.17936
2250.00000,83.22489
2252.00000,141.28438
2254.00000,111.34143
2256.00000,94.02473
2258.00000,118.34860
2260.00000,144.99174
2262.00000,144.49057
2264.00000,145.34262
2266.00000,131.52211
2268.00000,101.22184
2270.00000,89.66778
2272.00000,124.13081
2274.00000,126.54403
2276.00000,103.91860
2278.00000,104.97193
2280.00000,119.22565
2282.00000,104.23981
2284.00000,126.95201
2286.00000,165.29306
2288.00000,120.38288
2290.00000,113.32188
2292.00000,132.28412
2294.00000,123.96995
2296.00000,93.06824
2298.00000,91.76171
2300.00000,92.87627
2302.00000,86.04382
2304.00000,101.60003
2306.00000,148.78520
2308.00000,122.44017
2310.00000,60.96538
2312.00000,57.88335
2314.00000,105.72292
2316.00000,102.66709
2318.00000,77.14400
2320.00000,72.04208
2322.00000,75.15540
2324.00000,85.59319
2326.00000,92.58600
2328.00000,87.88028
2330.00000,87.66650
2332.00000,121.96984
2334.00000,129.51906
2336.00000,104.67438
2338.00000,89.48196
2340.00000,96.69731
2342.00000,96.96388
2344.00000,104.57101
2346.00000,126.51122
2348.00000,129.91714
2350.00000,103.68162
2352.00000,79.85921
2354.00000,90.33089
2356.00000,115.90487
2358.00000,86.69709
2360.00000,60.58924
2362.00000,92.50527
2364.00000,141.00336
2366.00000,110.04192
2368.00000,83.55680
2370.00000,106.45432
2372.00000,120.44030
2374.00000,60.35490
2376.00000,36.40888
2378.00000,77.51955
2380.00000,112.09150
2382.00000,84.02842
2384.00000,79.81906
2386.00000,112.33524
2388.00000,123.57862
2390.00000,85.30064
2392.00000,74.93204
2394.00000,99.18326
2396.00000,100.98456
2398.00000,60.79047
2400.00000,51.11279
2402.00000,82.30102
2404.00000,95.07926
2406.00000,96.37911
2408.00000,159.27061
2410.00000,174.40324
2412.00000,98.68144
2414.00000,52.40453
2416.00000,135.80551
2418.00000,154.18665
2420.00000,163.86075
2422.00000,163.17270
2424.00000,114.55669
2426.00000,142.46970
2428.00000,138.30551
2430.00000,127.59928
2432.00000,151.82278
2434.00000,104.49525
2436.00000,65.76778
2438.00000,95.42999
2440.00000,143.77927
2442.00000,128.66402
2444.00000,114.25748
2446.00000,94.09097
2448.00000,98.85110
2450.00000,138.13405
2452.00000,63.38616
2454.00000,81.02009
2456.00000,136.95734
2458.00000,66.54500
2460.00000,43.96114
2462.00000,103.43237
2464.00000,125.30710
2466.00000,94.88528
2468.00000,146.59230
2470.00000,116.79683
2472.00000,51.52276
2474.00000,58.07225
2476.00000,115.64433
2478.00000,136.17296
2480.00000,132.00989
2482.00000,127.35835
2484.00000,135.59045
2486.00000,185.97023
2488.00000,177.42226
2490.00000,112.39140
2492.00000,98.11950
2494.00000,164.55762
2496.00000,109.72440
2498.00000,53.28802
2500.00000,99.32327
2502.00000,96.79130
2504.00000,102.32043
2506.00000,100.24931
2508.00000,67.39928
2510.00000,39.98571
2512.00000,54.21955
2514.00000,59.71504
2516.00000,56.13567
2518.00000,66.96141
2520.00000,53.05984
2522.00000,101.48725
2524.00000,128.22913
2526.00000,74.85903
2528.00000,89.66276
2530.00000,105.34203
2532.00000,73.01200
2534.00000,64.70948
2536.00000,149.64525
2538.00000,147.34969
2540.00000,123.03297
2542.00000,140.34631
2544.00000,146.74229
2546.00000,133.58788
2548.00000,123.93881
2550.00000,138.00487
2552.00000,170.71649
2554.00000,182.66599
2556.00000,122.77129
2558.00000,112.20889
2560.00000,168.04863
2562.00000,116.88083
2564.00000,156.09998
2566.00000,210.25101
2568.00000,138.42622
2570.00000,26.38989
2572.00000,110.64029
2574.00000,160.74135
2576.00000,85.18306
2578.00000,61.70852
2580.00000,121.01018
2582.00000,111.24850
2584.00000,81.71784
2586.00000,131.06798
2588.00000,141.68004
2590.00000,89.50387
2592.00000,90.99290
2594.00000,137.87823
2596.00000,80.63759
2598.00000,94.05978
2600.00000,139.65395
2602.00000,131.80896
2604.00000,100.76907
2606.00000,108.50321
2608.00000,128.49670
2610.00000,132.12332
2612.00000,126.98851
2614.00000,126.99819
2616.00000,118.24458
2618.00000,131.56448
2620.00000,153.22359
2622.00000,104.80492
2624.00000,111.94180
2626.00000,120.99088
2628.00000,86.73547
2630.00000,92.34313
2632.00000,97.61342
2634.00000,60.08194
2636.00000,47.28797
2638.00000,109.15285
2640.00000,76.50288
2642.00000,26.46437
2644.00000,37.53488
2646.00000,74.32262
2648.00000,65.38462
2650.00000,46.58702
2652.00000,65.28375
2654.00000,84.66366
2656.00000,38.46256
2658.00000,72.25624
2660.00000,74.58542
2662.00000,13.21346
2664.00000,40.78383
2666.00000,73.68302
2668.00000,66.14310
2670.00000,64.13821
2672.00000,103.68005
2674.00000,101.02275
2676.00000,52.06177
2678.00000,63.11520
2680.00000,127.78565
2682.00000,57.56132
2684.00000,54.80180
2686.00000,124.41174
2688.00000,129.35738
2690.00000,61.25430
2692.00000,94.40262
2694.00000,133.71465
2696.00000,93.28229
2698.00000,64.34919
2700.00000,114.82529
2702.00000,94.51286
2704.00000,65.41238
2706.00000,132.26418
2708.00000,83.27478
2710.00000,137.88953
2712.00000,191.57269
2714.00000,100.61221
2716.00000,107.95146
2718.00000,214.04555
2720.00000,286.09253
2722.00000,277.46375
2724.00000,294.73874
2726.00000,401.16003
2728.00000,398.91772
2730.00000,334.42282
2732.00000,404.56183
2734.00000,381.13162
2736.00000,301.95328
2738.00000,249.24733
2740.00000,222.60385
2742.00000,189.53627
2744.00000,153.93637
2746.00000,113.94976
2748.00000,83.95375
2750.00000,85.31195
2752.00000,44.11215
2754.00000,-1.98583
2756.00000,3.71510
2758.00000,39.37346
2760.00000,42.14891
2762.00000,12.09843
2764.00000,9.51771
2766.00000,47.20171
2768.00000,28.66965
2770.00000,97.51765
2772.00000,173.00667
2774.00000,117.14373
2776.00000,90.12534
2778.00000,226.76286
2780.00000,299.86264
2782.00000,243.96487
2784.00000,348.31171
2786.00000,448.96643
2788.00000,419.96393
2790.00000,372.79886
2792.00000,434.83493
2794.00000,384.30548
2796.00000,375.07266
2798.00000,454.79730
2800.00000,465.47708
2802.00000,396.03223
2804.00000,557.20087
2806.00000,625.07745
2808.00000,491.42026
2810.00000,798.91650
2812.00000,882.67828
2814.00000,907.11237
2816.00000,1146.89441
2818.00000,1304.25610
2820.00000,1423.84326
2822.00000,1627.40430
2824.00000,1827.60815
2826.00000,1924.31067
2828.00000,2169.72363
2830.00000,2270.04688
2832.00000,2216.27563
2834.00000,2318.48193
2836.00000,2583.65259
2838.00000,2491.75903
2840.00000,2431.94751
2842.00000,2638.48267
2844.00000,2473.13770
2846.00000,2416.99243
2848.00000,2421.21729
2850.00000,2235.73486
2852.00000,1984.18616
2854.00000,1986.04761
2856.00000,1820.17200
2858.00000,1506.82129
2860.00000,1454.99927
2862.00000,1402.81873
2864.00000,1254.84326
2866.00000,1148.33606
2868.00000,1118.08264
2870.00000,982.52954
2872.00000,1066.55737
2874.00000,1075.55688
2876.00000,975.23627
2878.00000,1273.81238
2880.00000,1267.35669
2882.00000,1294.95215
2884.00000,1576.21912
2886.00000,1663.37585
2888.00000,1572.62463
2890.00000,1755.97974
2892.00000,1962.11584
2894.00000,1846.64734
2896.00000,2073.33838
2898.00000,2158.15942
2900.00000,2039.92542
2902.00000,2092.42114
2904.00000,2293.76270
2906.00000,2112.26123
2908.00000,2122.44751
2910.00000,2408.27734
2912.00000,2182.11255
2914.00000,2278.09839
2916.00000,2436.09106
2918.00000,2389.72729
2920.00000,2433.25439
2922.00000,2605.05518
2924.00000,2637.55640
2926.00000,2662.40918
2928.00000,2858.84521
2930.00000,2885.38452
2932.00000,2936.50293
2934.00000,3054.37573
2936.00000,3171.98853
2938.00000,3323.18384
2940.00000,3393.18945
2942.00000,3413.84668
2944.00000,3545.70898
2946.00000,3799.45557
2948.00000,3814.23047
2950.00000,4018.00317
2952.00000,4205.20313
2954.00000,3969.98047
2956.00000,4166.75098
2958.00000,4180.88379
2960.00000,3899.54712
2962.00000,3829.73828
2964.00000,3961.66968
2966.00000,3588.91699
2968.00000,3376.38281
2970.00000,3532.04712
2972.00000,3070.54761
2974.00000,3022.01196
2976.00000,2976.18701
2978.00000,2665.88574
2980.00000,2626.69678
2982.00000,2548.31616
2984.00000,2381.60303
2986.00000,2287.24561
2988.00000,2294.15723
2990.00000,2165.60107
2992.00000,2041.29321
2994.00000,2018.36633
2996.00000,1989.37170
2998.00000,1803.62219
3000.00000,1642.75415
3002.00000,1767.73450
3004.00000,1845.44177
3006.00000,1427.46326
3008.00000,1609.60229
3010.00000,1581.57434
3012.00000,1178.07422
3014.00000,1255.79456
3016.00000,1245.58093
3018.00000,1030.38354
3020.00000,931.62085
3022.00000,1055.81689
3024.00000,964.09857
3026.00000,810.33862
3028.00000,755.02191
3030.00000,785.27753
3032.00000,772.05969
3034.00000,543.59296
3036.00000,640.66797
3038.00000,812.87616
3040.00000,323.57669
3042.00000,487.04340
3044.00000,512.57288
3046.00000,232.02985
3048.00000,390.82938
3050.00000,407.64017
3052.00000,210.28050
3054.00000,207.70361
3056.00000,384.24637
3058.00000,73.12227
3060.00000,64.39697
3062.00000,247.72116
3064.00000,215.93283
3066.00000,183.29005
3068.00000,149.36308
3070.00000,93.46402
3072.00000,66.63643
3074.00000,113.93753
3076.00000,127.09560
3078.00000,73.54610
3080.00000,162.94038
3082.00000,343.99728
3084.00000,45.07699
3086.00000,195.81648
3088.00000,333.87564
3090.00000,-0.91768
3092.00000,259.11896
3094.00000,180.40215
3096.00000,173.12450
3098.00000,413.15070
3100.00000,128.49986
3102.00000,336.08502
3104.00000,342.63263
3106.00000,111.22763
3108.00000,426.25772
3110.00000,414.66644
3112.00000,350.50656
3114.00000,411.18036
3116.00000,388.44946
3118.00000,326.38434
3120.00000,432.06064
3122.00000,570.77704
3124.00000,492.36017
3126.00000,270.92529
3128.00000,302.81488
3130.00000,182.47408
3132.00000,19.73393
3134.00000,435.81351
3136.00000,489.85361
3138.00000,271.35092
3140.00000,176.02202
3142.00000,241.98146
3144.00000,269.19534
3146.00000,136.03018
3148.00000,175.76906
3150.00000,371.57657
3152.00000,39.72766
3154.00000,224.84111
3156.00000,353.46567
3158.00000,-11.48419
3160.00000,149.02495
3162.00000,342.83090
3164.00000,433.44147
3166.00000,399.46237
3168.00000,205.60526
3170.00000,286.40598
3172.00000,394.37131
3174.00000,353.49411
3176.00000,353.61328
3178.00000,509.22446
3180.00000,315.29642
3182.00000,175.08553
3184.00000,518.16791
3186.00000,704.33960
3188.00000,631.17914
3190.00000,762.81305
3192.00000,894.72363
3194.00000,461.98947
3196.00000,842.93109
3198.00000,974.95721
3200.00000,718.81165
