300.00000,1276.47119
302.00000,1193.90417
304.00000,1045.10205
306.00000,883.41663
308.00000,725.82477
310.00000,603.98193
312.00000,516.48163
314.00000,397.56400
316.00000,347.02353
318.00000,337.18695
320.00000,321.44629
322.00000,321.54559
324.00000,283.14816
326.00000,264.98331
328.00000,257.06317
330.00000,222.91624
332.00000,234.43959
334.00000,193.29593
336.00000,139.49326
338.00000,131.52689
340.00000,119.42049
342.00000,124.01949
344.00000,155.44200
346.00000,220.57443
348.00000,325.61917
350.00000,451.62823
352.00000,544.24396
354.00000,605.10657
356.00000,648.50519
358.00000,655.17468
360.00000,633.23627
362.00000,551.32379
364.00000,435.29025
366.00000,351.42953
368.00000,284.87808
370.00000,223.77547
372.00000,176.11298
374.00000,159.35788
376.00000,172.96062
378.00000,167.78464
380.00000,129.45842
382.00000,100.92536
384.00000,117.08923
386.00000,119.61079
388.00000,98.08026
390.00000,89.20244
392.00000,99.73783
394.00000,81.37590
396.00000,69.45290
398.00000,94.83233
400.00000,143.00780
402.00000,176.43565
404.00000,190.44847
406.00000,191.13481
408.00000,203.47908
410.00000,220.64368
412.00000,194.26521
414.00000,201.94702
416.00000,231.34164
418.00000,236.79910
420.00000,228.81604
422.00000,237.79080
424.00000,232.76363
426.00000,216.13350
428.00000,225.96205
430.00000,261.78622
432.00000,277.82782
434.00000,252.67348
436.00000,225.78212
438.00000,253.86943
440.00000,303.67456
442.00000,348.40985
444.00000,344.17273
446.00000,290.75500
448.00000,287.61237
450.00000,297.53970
452.00000,312.94940
454.00000,356.55087
456.00000,407.35190
458.00000,398.14923
460.00000,370.48874
462.00000,365.39468
464.00000,373.36703
466.00000,378.15363
468.00000,322.48712
470.00000,260.28232
472.00000,261.06531
474.00000,276.77444
476.00000,226.19418
478.00000,178.31461
480.00000,180.54926
482.00000,206.09750
484.00000,268.38721
486.00000,301.55103
488.00000,312.52631
490.00000,340.97748
492.00000,362.45157
494.00000,358.62866
496.00000,353.96359
498.00000,346.67068
500.00000,305.85800
502.00000,255.97733
504.00000,234.33894
506.00000,234.61690
508.00000,228.13213
510.00000,208.03711
512.00000,171.71721
514.00000,136.81412
516.00000,121.89754
518.00000,132.80936
520.00000,165.72919
522.00000,178.10234
524.00000,173.79756
526.00000,194.30684
528.00000,242.90488
530.00000,270.25922
532.00000,320.42902
534.00000,375.81284
536.00000,353.21002
538.00000,369.13879
540.00000,316.39896
542.00000,228.52527
544.00000,229.36703
546.00000,224.58044
548.00000,207.38770
550.00000,177.47980
552.00000,147.30037
554.00000,151.38289
556.00000,178.70705
558.00000,209.60410
560.00000,231.53058
562.00000,248.53741
564.00000,284.79852
566.00000,363.07013
568.00000,468.35730
570.00000,530.70868
572.00000,505.86813
574.00000,527.88800
576.00000,498.52426
578.00000,430.75623
580.00000,443.60751
582.00000,410.63870
584.00000,359.55197
586.00000,337.60895
588.00000,340.81723
590.00000,336.67902
592.00000,310.19006
594.00000,274.58722
596.00000,253.83676
598.00000,254.37067
600.00000,250.38669
602.00000,239.97414
604.00000,241.71613
606.00000,250.46858
608.00000,230.51508
610.00000,213.82433
612.00000,210.99937
614.00000,206.47501
616.00000,192.91096
618.00000,195.02579
620.00000,214.55562
622.00000,235.60074
624.00000,240.76643
626.00000,226.77406
628.00000,212.88255
630.00000,187.72026
632.00000,156.68144
634.00000,143.40578
636.00000,112.08572
638.00000,81.12585
640.00000,75.48623
642.00000,93.87879
644.00000,117.49088
646.00000,129.76410
648.00000,124.30713
650.00000,133.52234
652.00000,193.23595
654.00000,243.49725
656.00000,303.49945
658.00000,398.75140
660.00000,515.13000
662.00000,624.97131
664.00000,711.13013
666.00000,782.44971
668.00000,822.49402
670.00000,785.43573
672.00000,699.23688
674.00000,598.54889
676.00000,510.28647
678.00000,441.03082
680.00000,368.52792
682.00000,294.03464
684.00000,237.32571
686.00000,212.22208
688.00000,210.39194
690.00000,210.92572
692.00000,185.59547
694.00000,150.43204
696.00000,143.59506
698.00000,146.45755
700.00000,139.72064
702.00000,126.87595
704.00000,110.72452
706.00000,87.79893
708.00000,102.39976
710.00000,96.84062
712.00000,96.91500
714.00000,166.83971
716.00000,152.94542
718.00000,185.35222
720.00000,253.73587
722.00000,280.85431
724.00000,366.28088
726.00000,471.85477
728.00000,536.21576
730.00000,578.34485
732.00000,650.82062
734.00000,692.29926
736.00000,713.13031
738.00000,757.24762
740.00000,823.63055
742.00000,853.50037
744.00000,861.53101
746.00000,858.10907
748.00000,856.33600
750.00000,860.81824
752.00000,806.15259
754.00000,691.94403
756.00000,571.52057
758.00000,491.21591
760.00000,440.13721
762.00000,376.53748
764.00000,306.93524
766.00000,256.05515
768.00000,223.79816
770.00000,200.42462
772.00000,177.96460
774.00000,158.31471
776.00000,148.36850
778.00000,149.56143
780.00000,161.76216
782.00000,152.35521
784.00000,115.00808
786.00000,99.67110
788.00000,116.62878
790.00000,116.85231
792.00000,89.85417
794.00000,70.59286
796.00000,68.33660
798.00000,124.64571
800.00000,134.50920
802.00000,72.12943
804.00000,107.31611
806.00000,129.40782
808.00000,107.37043
810.00000,114.40634
812.00000,202.89040
814.00000,321.38153
816.00000,517.14801
818.00000,768.20172
820.00000,1068.97534
822.00000,1509.97705
824.00000,1974.60327
826.00000,2357.54175
828.00000,2618.05176
830.00000,2714.09082
832.00000,2555.98511
834.00000,2285.99756
836.00000,2012.76514
838.00000,1754.71680
840.00000,1552.94336
842.00000,1471.46545
844.00000,1451.12207
846.00000,1429.76477
848.00000,1420.94019
850.00000,1414.74976
852.00000,1383.55090
854.00000,1327.54688
856.00000,1254.04138
858.00000,1140.90662
860.00000,1005.02521
862.00000,916.22919
864.00000,896.72607
866.00000,879.67365
868.00000,818.33960
870.00000,737.23871
872.00000,643.15631
874.00000,541.52380
876.00000,486.09381
878.00000,414.57794
880.00000,369.35727
882.00000,394.73746
884.00000,417.32950
886.00000,382.75546
888.00000,342.43753
890.00000,352.18835
892.00000,393.91672
894.00000,396.75195
896.00000,370.32138
898.00000,328.83722
900.00000,281.44992
902.00000,250.42177
904.00000,246.27228
906.00000,230.60492
908.00000,201.32683
910.00000,193.62080
912.00000,191.47337
914.00000,173.36569
916.00000,161.32573
918.00000,171.03973
920.00000,170.97360
922.00000,163.87392
924.00000,144.58485
926.00000,115.05833
928.00000,92.28726
930.00000,83.78713
932.00000,71.65424
934.00000,63.46120
936.00000,70.76379
938.00000,76.63569
940.00000,88.45107
942.00000,71.67619
944.00000,54.07454
946.00000,90.35010
948.00000,73.98199
950.00000,56.42573
952.00000,70.26324
954.00000,93.30505
956.00000,131.61955
958.00000,173.22820
960.00000,203.96143
962.00000,236.10970
964.00000,276.21194
966.00000,251.56802
968.00000,192.99023
970.00000,152.16862
972.00000,133.26129
974.00000,102.84189
976.00000,57.92999
978.00000,37.68404
980.00000,47.45518
982.00000,61.30178
984.00000,137.23944
986.00000,147.81009
988.00000,120.50809
990.00000,152.31947
992.00000,95.43483
994.00000,82.03517
996.00000,93.80825
998.00000,62.66429
1000.00000,59.98920
1002.00000,96.66637
1004.00000,98.01092
1006.00000,85.76357
1008.00000,125.82510
1010.00000,130.70792
1012.00000,127.44765
1014.00000,119.74765
1016.00000,105.15021
1018.00000,124.12600
1020.00000,159.92340
1022.00000,199.29207
1024.00000,242.17453
1026.00000,295.17746
1028.00000,361.72791
1030.00000,411.31552
1032.00000,419.45544
1034.00000,400.15912
1036.00000,382.53906
1038.00000,319.14578
1040.00000,251.50034
1042.00000,212.77307
1044.00000,177.63414
1046.00000,150.28931
1048.00000,107.56361
1050.00000,72.90971
1052.00000,75.94232
1054.00000,88.42462
1056.00000,115.20395
1058.00000,109.50499
1060.00000,73.24888
1062.00000,77.96960
1064.00000,112.03721
1066.00000,122.44036
1068.00000,101.86549
1070.00000,88.90002
1072.00000,104.77855
1074.00000,118.48740
1076.00000,140.04312
1078.00000,179.51219
1080.00000,200.12881
1082.00000,167.68680
1084.00000,156.64709
1086.00000,169.64290
1088.00000,167.54599
1090.00000,203.29973
1092.00000,206.65649
1094.00000,194.65648
1096.00000,208.02696
1098.00000,216.63902
1100.00000,212.97296
1102.00000,220.13335
1104.00000,225.91812
1106.00000,224.51776
1108.00000,274.94943
1110.00000,265.74435
1112.00000,246.51184
1114.00000,298.31067
1116.00000,354.76743
1118.00000,407.43292
1120.00000,426.47714
1122.00000,397.90164
1124.00000,377.27487
1126.00000,442.89740
1128.00000,414.17673
1130.00000,355.62738
1132.00000,382.35437
1134.00000,374.23386
1136.00000,389.92694
1138.00000,414.41467
1140.00000,426.15234
1142.00000,453.44168
1144.00000,496.21567
1146.00000,515.11346
1148.00000,513.15735
1150.00000,530.58636
1152.00000,565.43903
1154.00000,516.30731
1156.00000,494.64709
1158.00000,549.63800
1160.00000,556.07574
1162.00000,515.87372
1164.00000,500.64700
1166.00000,493.85425
1168.00000,431.30789
1170.00000,331.32043
1172.00000,261.46350
1174.00000,245.67235
1176.00000,226.29771
1178.00000,154.13759
1180.00000,138.46623
1182.00000,127.36382
1184.00000,95.86993
1186.00000,76.68128
1188.00000,50.36745
1190.00000,34.22694
1192.00000,45.82320
1194.00000,56.75475
1196.00000,29.22891
1198.00000,32.18464
1200.00000,67.49901
1202.00000,109.72656
1204.00000,148.05777
1206.00000,189.32091
1208.00000,272.34833
1210.00000,374.61414
1212.00000,479.56281
1214.00000,644.98541
1216.00000,910.12701
1218.00000,1141.98523
1220.00000,1260.27576
1222.00000,1291.75134
1224.00000,1223.84607
1226.00000,1074.15857
1228.00000,823.81665
1230.00000,542.05780
1232.00000,393.87933
1234.00000,282.97888
1236.00000,206.70195
1238.00000,168.57376
1240.00000,135.57835
1242.00000,145.39380
1244.00000,183.58046
1246.00000,210.24347
1248.00000,213.02823
1250.00000,212.39310
1252.00000,180.59772
1254.00000,131.83588
1256.00000,112.31620
1258.00000,133.62186
1260.00000,124.50539
1262.00000,71.79585
1264.00000,58.66071
1266.00000,115.52261
1268.00000,132.58925
1270.00000,156.60318
1272.00000,238.37799
1274.00000,344.85733
1276.00000,415.00949
1278.00000,496.33716
1280.00000,583.76416
1282.00000,663.27917
1284.00000,706.41040
1286.00000,666.67407
1288.00000,636.12067
1290.00000,625.37555
1292.00000,589.03058
1294.00000,524.49658
1296.00000,484.97717
1298.00000,472.03494
1300.00000,468.60440
1302.00000,451.73224
1304.00000,403.26508
1306.00000,415.28195
1308.00000,447.67480
1310.00000,406.16037
1312.00000,322.17096
1314.00000,355.62564
1316.00000,379.94022
1318.00000,331.40219
1320.00000,314.73157
1322.00000,345.44751
1324.00000,275.15781
1326.00000,183.30109
1328.00000,178.40880
1330.00000,162.93958
1332.00000,109.07381
1334.00000,57.55584
1336.00000,44.18818
1338.00000,48.93709
1340.00000,17.86147
1342.00000,5.15657
1344.00000,17.53056
1346.00000,34.94709
1348.00000,71.62032
1350.00000,85.97756
1352.00000,86.00186
1354.00000,80.35110
1356.00000,66.33276
1358.00000,84.27456
1360.00000,124.48180
1362.00000,160.62842
1364.00000,177.85185
1366.00000,181.28979
1368.00000,193.03487
1370.00000,201.39331
1372.00000,177.86023
1374.00000,135.94643
1376.00000,156.12540
1378.00000,167.52000
1380.00000,137.41623
1382.00000,120.64473
1384.00000,149.10577
1386.00000,141.05083
1388.00000,163.29031
1390.00000,215.39745
1392.00000,187.31526
1394.00000,199.75645
1396.00000,198.03760
1398.00000,158.18088
1400.00000,139.65398
1402.00000,147.27243
1404.00000,119.44919
1406.00000,104.25999
1408.00000,119.45429
1410.00000,89.00546
1412.00000,63.86491
1414.00000,53.37689
1416.00000,48.58228
1418.00000,49.22456
1420.00000,53.02038
1422.00000,61.37696
1424.00000,122.47692
1426.00000,202.85249
1428.00000,202.19498
1430.00000,263.90973
1432.00000,376.65106
1434.00000,447.55963
1436.00000,504.43704
1438.00000,708.04602
1440.00000,805.29547
1442.00000,906.94202
1444.00000,1119.63354
1446.00000,1174.23047
1448.00000,1246.43420
1450.00000,1270.15686
1452.00000,1260.19434
1454.00000,1328.64319
1456.00000,1284.72510
1458.00000,1266.47168
1460.00000,1284.22021
1462.00000,1248.35242
1464.00000,1206.14880
1466.00000,1190.27075
1468.00000,1230.83582
1470.00000,1254.93909
1472.00000,1180.12793
1474.00000,1152.82581
1476.00000,1164.83325
1478.00000,1062.99146
1480.00000,842.64716
1482.00000,743.44891
1484.00000,635.68542
1486.00000,521.92743
1488.00000,405.07419
1490.00000,238.85623
1492.00000,193.22636
1494.00000,164.33270
1496.00000,116.62634
1498.00000,111.49352
1500.00000,109.15262
1502.00000,112.27647
1504.00000,110.75858
1506.00000,98.18218
1508.00000,77.57259
1510.00000,29.78736
1512.00000,58.20826
1514.00000,96.87448
1516.00000,51.32232
1518.00000,86.95650
1520.00000,105.92859
1522.00000,116.06483
1524.00000,117.66107
1526.00000,53.47262
1528.00000,137.16017
1530.00000,152.93927
1532.00000,59.15581
1534.00000,67.75089
1536.00000,135.85156
1538.00000,153.27275
1540.00000,130.51622
1542.00000,115.80154
1544.00000,107.33927
1546.00000,152.06316
1548.00000,125.83273
1550.00000,84.71768
1552.00000,149.29301
1554.00000,96.54285
1556.00000,171.46008
1558.00000,200.83713
1560.00000,51.87915
1562.00000,101.25153
1564.00000,105.45721
1566.00000,74.92996
1568.00000,99.83760
1570.00000,136.30225
1572.00000,150.25964
1574.00000,152.74358
1576.00000,121.58652
1578.00000,91.22633
1580.00000,150.75938
1582.00000,84.53230
1584.00000,50.04419
1586.00000,101.30640
1588.00000,41.45956
1590.00000,15.28041
1592.00000,62.85215
1594.00000,71.33916
1596.00000,5.60377
1598.00000,25.28131
1600.00000,37.22112
1602.00000,26.08416
1604.00000,32.39783
1606.00000,51.32233
1608.00000,58.04166
1610.00000,55.89744
1612.00000,69.89046
1614.00000,98.08793
1616.00000,88.86331
1618.00000,52.72323
1620.00000,45.20895
1622.00000,59.83716
1624.00000,35.66844
1626.00000,34.51863
1628.00000,55.32758
1630.00000,65.71288
1632.00000,56.73370
1634.00000,56.74103
1636.00000,95.48163
1638.00000,98.30274
1640.00000,77.38980
1642.00000,146.63672
1644.00000,125.78097
1646.00000,133.27582
1648.00000,194.08163
1650.00000,157.22514
1652.00000,71.20915
1654.00000,133.04602
1656.00000,170.86815
1658.00000,77.30280
1660.00000,118.97631
1662.00000,135.22487
1664.00000,103.06109
1666.00000,95.53610
1668.00000,138.61594
1670.00000,189.96220
1672.00000,166.26633
1674.00000,149.29132
1676.00000,200.97713
1678.00000,211.69507
1680.00000,268.12286
1682.00000,267.99454
1684.00000,222.68422
1686.00000,271.62613
1688.00000,266.48993
1690.00000,252.77284
1692.00000,242.54175
1694.00000,232.65863
1696.00000,284.34064
1698.00000,234.88860
1700.00000,212.05974
1702.00000,277.92441
1704.00000,259.67496
1706.00000,193.62772
1708.00000,259.72696
1710.00000,294.98685
1712.00000,158.35158
1714.00000,183.86801
1716.00000,183.37090
1718.00000,160.76379
1720.00000,170.90259
1722.00000,152.70802
1724.00000,211.74364
1726.00000,185.22340
1728.00000,144.83279
1730.00000,213.48480
1732.00000,132.03714
1734.00000,151.84875
1736.00000,155.21721
1738.00000,61.44719
1740.00000,127.84107
1742.00000,167.57269
1744.00000,100.84287
1746.00000,106.62676
1748.00000,249.56586
1750.00000,167.34575
1752.00000,85.84018
1754.00000,116.00466
1756.00000,149.59424
1758.00000,108.76724
1760.00000,55.66314
1762.00000,95.10347
1764.00000,136.30962
1766.00000,76.87688
1768.00000,136.61975
1770.00000,105.13898
1772.00000,74.54663
1774.00000,191.14943
1776.00000,227.96559
1778.00000,134.47820
1780.00000,147.73500
1782.00000,170.28143
1784.00000,7.16757
1786.00000,167.31871
1788.00000,149.05470
1790.00000,53.09050
1792.00000,181.68466
1794.00000,117.27309
1796.00000,69.94021
1798.00000,135.37450
1800.00000,207.92995
1802.00000,157.61693
1804.00000,3.13271
1806.00000,122.37231
1808.00000,225.80888
1810.00000,53.10050
1812.00000,189.75053
1814.00000,107.55602
1816.00000,4.90480
1818.00000,74.29675
1820.00000,7.51820
1822.00000,42.48497
1824.00000,78.49893
1826.00000,62.03723
1828.00000,63.28939
1830.00000,46.01219
1832.00000,49.38044
1834.00000,33.57948
1836.00000,87.11639
1838.00000,273.80536
1840.00000,70.57326
1842.00000,96.99751
1844.00000,287.11441
1846.00000,90.92718
1848.00000,58.74134
1850.00000,92.51449
1852.00000,111.33548
1854.00000,118.01356
1856.00000,67.91335
1858.00000,78.35244
1860.00000,131.16818
1862.00000,88.68440
1864.00000,-4.28540
1866.00000,191.10378
1868.00000,235.10730
1870.00000,88.80489
1872.00000,97.76540
1874.00000,282.91861
1876.00000,103.14290
1878.00000,51.29164
1880.00000,225.93767
1882.00000,119.67406
1884.00000,40.55834
1886.00000,50.62675
1888.00000,79.46413
1890.00000,127.47641
1892.00000,242.65140
1894.00000,247.61504
1896.00000,191.63390
1898.00000,210.25137
1900.00000,277.63708
1902.00000,215.04688
1904.00000,222.00014
1906.00000,201.36496
1908.00000,87.40032
1910.00000,209.95319
1912.00000,123.22820
1914.00000,173.03667
1916.00000,356.69958
1918.00000,132.83986
1920.00000,146.99893
1922.00000,272.99869
1924.00000,241.32236
1926.00000,171.77269
1928.00000,315.68295
1930.00000,172.70230
1932.00000,36.93231
1934.00000,110.41134
1936.00000,26.06931
1938.00000,97.95898
1940.00000,69.89329
1942.00000,36.55917
1944.00000,207.38141
1946.00000,133.01334
1948.00000,170.02075
1950.00000,256.30353
1952.00000,199.86435
1954.00000,212.17888
1956.00000,434.43256
1958.00000,286.10809
1960.00000,76.21600
1962.00000,357.35889
1964.00000,220.43025
1966.00000,219.58072
1968.00000,327.12231
1970.00000,278.13559
1972.00000,328.16031
1974.00000,248.73262
1976.00000,269.59299
1978.00000,418.48941
1980.00000,428.90494
1982.00000,403.70041
1984.00000,376.37454
1986.00000,316.08496
1988.00000,332.23141
1990.00000,543.71045
1992.00000,427.00812
1994.00000,401.72678
1996.00000,475.88580
1998.00000,189.05136
2000.00000,482.41309
2002.00000,453.84030
2004.00000,316.25336
2006.00000,370.35245
2008.00000,428.62894
2010.00000,389.04584
2012.00000,333.58307
2014.00000,355.31885
2016.00000,362.62686
2018.00000,307.00253
2020.00000,285.73859
2022.00000,340.91730
2024.00000,326.50961
2026.00000,289.37759
2028.00000,272.76773
2030.00000,272.85101
2032.00000,279.27798
2034.00000,302.64984
2036.00000,269.96790
2038.00000,226.88852
2040.00000,282.23544
2042.00000,315.28418
2044.00000,328.40619
2046.00000,323.89789
2048.00000,290.01184
2050.00000,276.20654
2052.00000,289.52612
2054.00000,297.42670
2056.00000,292.15466
2058.00000,306.78085
2060.00000,299.44257
2062.00000,268.76047
2064.00000,272.70056
2066.00000,342.14648
2068.00000,358.04471
2070.00000,308.81335
2072.00000,281.87418
2074.00000,325.21942
2076.00000,338.62839
2078.00000,344.47980
2080.00000,348.78452
2082.00000,341.52679
2084.00000,359.21930
2086.00000,366.50546
2088.00000,359.22946
2090.00000,356.07681
2092.00000,360.23178
2094.00000,368.55890
2096.00000,338.00928
2098.00000,311.60135
2100.00000,361.39209
2102.00000,358.77234
2104.00000,380.53595
2106.00000,419.87875
2108.00000,390.14917
2110.00000,372.65076
2112.00000,398.71707
2114.00000,407.26627
2116.00000,380.60361
2118.00000,408.10901
2120.00000,408.07324
2122.00000,397.50375
2124.00000,391.30060
2126.00000,351.83463
2128.00000,399.04913
2130.00000,404.56381
2132.00000,344.22589
2134.00000,370.38486
2136.00000,442.28952
2138.00000,449.03876
2140.00000,403.62012
2142.00000,395.16394
2144.00000,422.62534
2146.00000,445.45886
2148.00000,444.65219
2150.00000,429.32196
2152.00000,418.36215
2154.00000,425.09720
2156.00000,448.83231
2158.00000,475.67276
2160.00000,486.37900
2162.00000,474.25748
2164.00000,475.15704
2166.00000,478.20642
2168.00000,447.88318
2170.00000,430.21576
2172.00000,443.49036
2174.00000,445.65070
2176.00000,417.37045
2178.00000,426.60907
2180.00000,463.44333
2182.00000,478.99744
2184.00000,454.94272
2186.00000,434.47891
2188.00000,463.35504
2190.00000,478.14139
2192.00000,454.63693
2194.00000,457.94717
2196.00000,493.24142
2198.00000,504.77588
2200.00000,481.30338
2202.00000,467.83884
2204.00000,485.99515
2206.00000,483.24271
2208.00000,447.76404
2210.00000,419.24365
2212.00000,429.79810
2214.00000,454.98996
2216.00000,444.87915
2218.00000,402.49588
2220.00000,398.84592
2222.00000,453.71268
2224.00000,443.55316
2226.00000,384.73352
2228.00000,404.78568
2230.00000,400.09714
2232.00000,378.05951
2234.00000,373.87741
2236.00000,374.93454
2238.00000,349.05109
2240.00000,367.65982
2242.00000,379.28824
2244.00000,349.93658
2246.00000,379.79114
2248.00000,380.32254
2250.00000,342.89301
2252.00000,342.14810
2254.00000,395.56461
2256.00000,351.40564
2258.00000,285.83856
2260.00000,294.85809
2262.00000,345.41940
2264.00000,346.01257
2266.00000,302.28009
2268.00000,266.30862
2270.00000,284.08179
2272.00000,347.15460
2274.00000,333.75153
2276.00000,279.74731
2278.00000,296.83957
2280.00000,373.01501
2282.00000,334.46265
2284.00000,280.91391
2286.00000,319.18884
2288.00000,370.37280
2290.00000,351.99399
2292.00000,350.18945
2294.00000,356.48090
2296.00000,300.34647
2298.00000,275.17975
2300.00000,278.59955
2302.00000,304.25833
2304.00000,332.21118
2306.00000,306.25330
2308.00000,278.86078
2310.00000,311.93051
2312.00000,354.11237
2314.00000,300.48157
2316.00000,279.31497
2318.00000,335.84384
2320.00000,385.92557
2322.00000,350.91718
2324.00000,324.14679
2326.00000,334.78442
2328.00000,365.65286
2330.00000,377.53064
2332.00000,335.41095
2334.00000,320.62646
2336.00000,331.89035
2338.00000,329.98267
2340.00000,334.90503
2342.00000,339.04984
2344.00000,337.81125
2346.00000,347.92258
2348.00000,381.74646
2350.00000,392.73865
2352.00000,377.08957
2354.00000,347.38574
2356.00000,324.27277
2358.00000,348.46085
2360.00000,380.70337
2362.00000,346.52713
2364.00000,284.13602
2366.00000,352.69879
2368.00000,362.90079
2370.00000,299.55719
2372.00000,279.94229
2374.00000,319.63855
2376.00000,324.76730
2378.00000,298.52481
2380.00000,293.94171
2382.00000,316.42627
2384.00000,302.85944
2386.00000,305.44177
2388.00000,325.32401
2390.00000,310.01929
2392.00000,289.27295
2394.00000,269.37805
2396.00000,266.01822
2398.00000,284.85831
2400.00000,295.18127
2402.00000,290.91318
2404.00000,301.53891
2406.00000,304.91214
2408.00000,251.37474
2410.00000,262.15851
2412.00000,288.82663
2414.00000,262.74841
2416.00000,218.62741
2418.00000,222.48683
2420.00000,253.53735
2422.00000,276.73499
2424.00000,276.67886
2426.00000,248.61076
2428.00000,221.91916
2430.00000,228.44691
2432.00000,233.03691
2434.00000,178.40092
2436.00000,232.62935
2438.00000,254.16669
2440.00000,169.61086
2442.00000,164.62447
2444.00000,200.70070
2446.00000,189.27934
2448.00000,153.07603
2450.00000,165.15929
2452.00000,159.97278
2454.00000,94.18308
2456.00000,89.14630
2458.00000,193.31746
2460.00000,180.56671
2462.00000,120.82145
2464.00000,142.99312
2466.00000,227.41319
2468.00000,221.64417
2470.00000,149.05650
2472.00000,133.88573
2474.00000,168.82027
2476.00000,142.74220
2478.00000,147.88048
2480.00000,179.32349
2482.00000,174.12190
2484.00000,132.55173
2486.00000,150.71873
2488.00000,134.69513
2490.00000,128.27495
2492.00000,180.50224
2494.00000,160.99040
2496.00000,178.85605
2498.00000,188.57951
2500.00000,154.72389
2502.00000,174.57211
2504.00000,178.00208
2506.00000,176.22174
2508.00000,187.45610
2510.00000,177.54778
2512.00000,131.61461
2514.00000,131.29451
2516.00000,168.22433
2518.00000,164.60760
2520.00000,132.43842
2522.00000,138.99541
2524.00000,174.55006
2526.00000,196.51167
2528.00000,192.28206
2530.00000,113.02390
2532.00000,142.55467
2534.00000,250.83655
2536.00000,173.53944
2538.00000,166.17586
2540.00000,187.87172
2542.00000,169.56364
2544.00000,164.63576
2546.00000,162.27409
2548.00000,139.95749
2550.00000,130.00909
2552.00000,160.33987
2554.00000,177.93404
2556.00000,162.62943
2558.00000,136.76459
2560.00000,138.80016
2562.00000,178.61995
2564.00000,193.26689
2566.00000,143.86462
2568.00000,111.54031
2570.00000,187.63783
2572.00000,213.85300
2574.00000,179.79427
2576.00000,176.18639
2578.00000,210.26508
2580.00000,144.01909
2582.00000,169.36961
2584.00000,242.09691
2586.00000,211.13052
2588.00000,179.27271
2590.00000,204.37271
2592.00000,208.76712
2594.00000,157.68658
2596.00000,160.53424
2598.00000,263.11618
2600.00000,224.39740
2602.00000,102.86400
2604.00000,186.12927
2606.00000,227.42889
2608.00000,199.12253
2610.00000,209.84160
2612.00000,262.25311
2614.00000,190.96201
2616.00000,134.96730
2618.00000,186.31358
2620.00000,225.38644
2622.00000,103.43640
2624.00000,130.53944
2626.00000,218.06943
2628.00000,189.24567
2630.00000,135.03160
2632.00000,170.13280
2634.00000,189.12148
2636.00000,144.86859
2638.00000,153.51181
2640.00000,275.40140
2642.00000,237.94621
2644.00000,117.33049
2646.00000,173.73050
2648.00000,283.18100
2650.00000,202.21701
2652.00000,177.62738
2654.00000,300.57477
2656.00000,180.92247
2658.00000,139.23734
2660.00000,197.19292
2662.00000,209.06258
2664.00000,165.26762
2666.00000,164.40941
2668.00000,195.11165
2670.00000,172.58925
2672.00000,101.93710
2674.00000,161.57294
2676.00000,260.34860
2678.00000,207.02792
2680.00000,96.68733
2682.00000,257.53986
2684.00000,132.99921
2686.00000,35.29485
2688.00000,217.88054
2690.00000,164.41483
2692.00000,24.15432
2694.00000,91.21759
2696.00000,212.19788
2698.00000,85.72054
2700.00000,121.36481
2702.00000,130.10991
2704.00000,50.01802
2706.00000,67.93780
2708.00000,148.29639
2710.00000,162.42581
2712.00000,120.40690
2714.00000,144.01791
2716.00000,261.56821
2718.00000,217.29379
2720.00000,233.72481
2722.00000,361.65414
2724.00000,288.55206
2726.00000,325.48816
2728.00000,443.63565
2730.00000,445.12793
2732.00000,332.14624
2734.00000,381.66037
2736.00000,416.39056
2738.00000,365.73776
2740.00000,326.17139
2742.00000,283.46677
2744.00000,243.99591
2746.00000,220.08888
2748.00000,202.48123
2750.00000,150.69315
2752.00000,38.99080
2754.00000,57.44979
2756.00000,140.03397
2758.00000,19.13582
2760.00000,-20.64275
2762.00000,26.35158
2764.00000,27.11304
2766.00000,-0.23730
2768.00000,130.39978
2770.00000,86.41895
2772.00000,7.64325
2774.00000,113.07132
2776.00000,67.71930
2778.00000,73.12688
2780.00000,159.32233
2782.00000,222.63910
2784.00000,248.92467
2786.00000,239.04791
2788.00000,271.85602
2790.00000,317.12280
2792.00000,287.08334
2794.00000,302.96429
2796.00000,270.39920
2798.00000,238.49028
2800.00000,319.01129
2802.00000,366.41992
2804.00000,381.97427
2806.00000,489.45782
2808.00000,652.98511
2810.00000,645.93488
2812.00000,697.73883
2814.00000,824.79901
2816.00000,955.67651
2818.00000,1143.38245
2820.00000,1418.83630
2822.00000,1629.70581
2824.00000,1802.85400
2826.00000,2013.42944
2828.00000,1982.23157
2830.00000,2120.18359
2832.00000,2399.63428
2834.00000,2463.97119
2836.00000,2442.08276
2838.00000,2588.55273
2840.00000,2720.29248
2842.00000,2661.44604
2844.00000,2622.50513
2846.00000,2596.09375
2848.00000,2472.97705
2850.00000,2323.14819
2852.00000,2266.90308
2854.00000,2024.37280
2856.00000,1918.21643
2858.00000,1861.92346
2860.00000,1562.75769
2862.00000,1511.78015
2864.00000,1439.57141
2866.00000,1235.12476
2868.00000,1171.86353
2870.00000,1364.90283
2872.00000,1133.44934
2874.00000,1041.68921
2876.00000,1351.25940
2878.00000,1214.81213
2880.00000,1246.31116
2882.00000,1437.98181
2884.00000,1546.41406
2886.00000,1612.29724
2888.00000,1734.04749
2890.00000,1792.65198
2892.00000,1880.86035
2894.00000,2070.70361
2896.00000,2027.50916
2898.00000,2074.49854
2900.00000,2248.98584
2902.00000,2269.53516
2904.00000,2090.40625
2906.00000,2206.96143
2908.00000,2216.95776
2910.00000,2004.99414
2912.00000,2167.45776
2914.00000,2260.79028
2916.00000,2237.86133
2918.00000,2252.49902
2920.00000,2331.19336
2922.00000,2398.49414
2924.00000,2477.26709
2926.00000,2579.99927
2928.00000,2680.37817
2930.00000,2768.30273
2932.00000,2874.69141
2934.00000,2974.72632
2936.00000,3061.31445
2938.00000,3203.36377
2940.00000,3413.48633
2942.00000,3621.19653
2944.00000,3769.22363
2946.00000,3933.86206
2948.00000,4276.76611
2950.00000,4253.01221
2952.00000,4147.53760
2954.00000,4521.74658
2956.00000,4511.56543
2958.00000,4504.39307
2960.00000,4631.67725
2962.00000,4532.55566
2964.00000,4163.26660
2966.00000,4157.67041
2968.00000,4140.37500
2970.00000,3850.29883
2972.00000,3839.96216
2974.00000,3705.32593
2976.00000,3425.56274
2978.00000,3253.73730
2980.00000,3234.37744
2982.00000,3049.31152
2984.00000,2964.03906
2986.00000,2920.01050
2988.00000,2747.55542
2990.00000,2819.05396
2992.00000,2506.94678
2994.00000,2317.48975
2996.00000,2553.35352
2998.00000,2157.46509
3000.00000,2112.62280
3002.00000,2263.34009
3004.00000,2120.28345
3006.00000,1957.67090
3008.00000,1943.51196
3010.00000,1835.90747
3012.00000,1635.45923
3014.00000,1604.07983
3016.00000,1623.16382
3018.00000,1530.09485
3020.00000,1286.48938
3022.00000,1099.74036
3024.00000,1237.49634
3026.00000,1144.95435
3028.00000,1080.46484
3030.00000,1208.28162
3032.00000,938.16168
3034.00000,924.06903
3036.00000,959.32074
3038.00000,818.33844
3040.00000,813.59967
3042.00000,824.18414
3044.00000,711.82690
3046.00000,602.47552
3048.00000,650.98267
3050.00000,630.00653
3052.00000,486.30093
3054.00000,343.47424
3056.00000,360.46667
3058.00000,530.02429
3060.00000,514.26080
3062.00000,474.44739
3064.00000,396.27695
3066.00000,12.06843
3068.00000,288.83041
3070.00000,312.04993
3072.00000,49.56992
3074.00000,477.23907
3076.00000,188.13814
3078.00000,-0.97649
3080.00000,140.92796
3082.00000,6.05076
3084.00000,50.67563
3086.00000,265.02161
3088.00000,347.48883
3090.00000,215.99997
3092.00000,178.30524
3094.00000,249.82539
3096.00000,230.85089
3098.00000,183.34383
3100.00000,323.57538
3102.00000,175.09251
3104.00000,-9.43847
3106.00000,47.08032
3108.00000,182.30560
3110.00000,168.69008
3112.00000,151.03937
3114.00000,144.78900
3116.00000,87.45181
3118.00000,105.48013
3120.00000,38.84343
3122.00000,22.60116
3124.00000,208.46492
3126.00000,362.61719
3128.00000,201.04465
3130.00000,88.27884
3132.00000,139.60068
3134.00000,18.40969
3136.00000,29.14266
3138.00000,227.98738
3140.00000,469.97745
3142.00000,535.55060
3144.00000,264.23227
3146.00000,118.52055
3148.00000,264.80292
3150.00000,366.19330
3152.00000,162.37625
3154.00000,370.44324
3156.00000,572.59668
3158.00000,359.79013
3160.00000,326.25092
3162.00000,458.92218
3164.00000,504.14307
3166.00000,576.40356
3168.00000,803.75958
3170.00000,487.75946
3172.00000,538.95782
3174.00000,636.22894
3176.00000,142.84027
3178.00000,562.07849
3180.00000,685.46960
3182.00000,454.25015
3184.00000,465.02802
3186.00000,316.35593
3188.00000,638.98657
3190.00000,712.03949
3192.00000,371.92166
3194.00000,621.17938
3196.00000,518.14465
3198.00000,365.99521
3200.00000,405.16473
