300.00000,953.64563
302.00000,858.82349
304.00000,739.14587
306.00000,626.95154
308.00000,520.14014
310.00000,410.07620
312.00000,318.29871
314.00000,280.49283
316.00000,238.94388
318.00000,204.51039
320.00000,202.95757
322.00000,210.07887
324.00000,208.33604
326.00000,217.07207
328.00000,214.18286
330.00000,187.21199
332.00000,200.21605
334.00000,180.32924
336.00000,147.06834
338.00000,133.43546
340.00000,106.46976
342.00000,106.54791
344.00000,138.07133
346.00000,210.25194
348.00000,324.65344
350.00000,427.44257
352.00000,514.52667
354.00000,583.58685
356.00000,626.41583
358.00000,636.15942
360.00000,595.61884
362.00000,522.07141
364.00000,438.88803
366.00000,353.81668
368.00000,269.96799
370.00000,212.40126
372.00000,188.02676
374.00000,186.09146
376.00000,188.89873
378.00000,160.22136
380.00000,121.85603
382.00000,105.88291
384.00000,115.67685
386.00000,137.76596
388.00000,146.20952
390.00000,114.84766
392.00000,77.41973
394.00000,107.39146
396.00000,110.07446
398.00000,119.31173
400.00000,119.44748
402.00000,43.93167
404.00000,46.41216
406.00000,51.42964
408.00000,49.31629
410.00000,77.09663
412.00000,64.51077
414.00000,78.44878
416.00000,100.92854
418.00000,96.62153
420.00000,88.05405
422.00000,82.67104
424.00000,81.60242
426.00000,75.71439
428.00000,60.12041
430.00000,48.17399
432.00000,40.27148
434.00000,43.81398
436.00000,52.82418
438.00000,49.84406
440.00000,53.97287
442.00000,65.11259
444.00000,88.21009
446.00000,119.27906
448.00000,123.86465
450.00000,132.61975
452.00000,162.60574
454.00000,192.41916
456.00000,193.52269
458.00000,186.35065
460.00000,208.73793
462.00000,206.00401
464.00000,157.47540
466.00000,222.40639
468.00000,196.96199
470.00000,135.79057
472.00000,157.01566
474.00000,146.47562
476.00000,153.38547
478.00000,137.21942
480.00000,91.05485
482.00000,79.45229
484.00000,99.55909
486.00000,112.43327
488.00000,110.38914
490.00000,109.38139
492.00000,109.60438
494.00000,92.43908
496.00000,76.30699
498.00000,72.44800
500.00000,72.10507
502.00000,84.79413
504.00000,78.92526
506.00000,57.95720
508.00000,46.80800
510.00000,40.54438
512.00000,37.40673
514.00000,58.21686
516.00000,79.00889
518.00000,70.42616
520.00000,124.57273
522.00000,163.84958
524.00000,192.84576
526.00000,260.94849
528.00000,296.11258
530.00000,324.48804
532.00000,351.62363
534.00000,372.19159
536.00000,386.94434
538.00000,361.88129
540.00000,325.19495
542.00000,286.43448
544.00000,238.29784
546.00000,205.44283
548.00000,159.70352
550.00000,126.68234
552.00000,135.24635
554.00000,156.14824
556.00000,153.90077
558.00000,146.58800
560.00000,159.70631
562.00000,198.96863
564.00000,257.57220
566.00000,313.61588
568.00000,372.76328
570.00000,437.05490
572.00000,481.39728
574.00000,503.56009
576.00000,498.23953
578.00000,464.50616
580.00000,421.66714
582.00000,402.78076
584.00000,383.30612
586.00000,342.65091
588.00000,292.41251
590.00000,256.33920
592.00000,222.36694
594.00000,189.00203
596.00000,166.49066
598.00000,157.66711
600.00000,145.63506
602.00000,129.05988
604.00000,118.46983
606.00000,124.21066
608.00000,144.43430
610.00000,158.42561
612.00000,146.45985
614.00000,122.72045
616.00000,116.08817
618.00000,110.02829
620.00000,109.25436
622.00000,109.98023
624.00000,98.59566
626.00000,79.26254
628.00000,81.58352
630.00000,71.40526
632.00000,62.44334
634.00000,104.58286
636.00000,94.01675
638.00000,73.85434
640.00000,72.77978
642.00000,74.25194
644.00000,92.25688
646.00000,81.50636
648.00000,70.71160
650.00000,84.55585
652.00000,107.23309
654.00000,198.33932
656.00000,278.67105
658.00000,354.92685
660.00000,494.10168
662.00000,628.38483
664.00000,744.07135
666.00000,812.80969
668.00000,815.35406
670.00000,768.23755
672.00000,670.30658
674.00000,547.82312
676.00000,437.33304
678.00000,359.19632
680.00000,304.26035
682.00000,247.21494
684.00000,215.14011
686.00000,212.46574
688.00000,182.98138
690.00000,156.08099
692.00000,138.75157
694.00000,119.27713
696.00000,99.96420
698.00000,102.21401
700.00000,105.24069
702.00000,100.36459
704.00000,89.91464
706.00000,76.97011
708.00000,102.91335
710.00000,122.03824
712.00000,113.03121
714.00000,131.36665
716.00000,205.41266
718.00000,268.78049
720.00000,315.45847
722.00000,377.81754
724.00000,442.51413
726.00000,526.61304
728.00000,607.11578
730.00000,682.30127
732.00000,772.39410
734.00000,825.37531
736.00000,860.33801
738.00000,905.82678
740.00000,949.49213
742.00000,957.10797
744.00000,958.18799
746.00000,952.24268
748.00000,934.40106
750.00000,908.59595
752.00000,836.15863
754.00000,745.63654
756.00000,649.07159
758.00000,541.04352
760.00000,452.78116
762.00000,380.71741
764.00000,310.12421
766.00000,253.82512
768.00000,234.91864
770.00000,208.66293
772.00000,176.09839
774.00000,148.48413
776.00000,125.75772
778.00000,113.05154
780.00000,109.72455
782.00000,106.72369
784.00000,100.23070
786.00000,97.78403
788.00000,98.59763
790.00000,85.32481
792.00000,61.37399
794.00000,57.86775
796.00000,90.20313
798.00000,98.62106
800.00000,78.17862
802.00000,73.02631
804.00000,101.65132
806.00000,132.56038
808.00000,158.67747
810.00000,213.18367
812.00000,312.88498
814.00000,404.95490
816.00000,549.95551
818.00000,803.91974
820.00000,1156.89587
822.00000,1559.45740
824.00000,1989.37842
826.00000,2397.64722
828.00000,2685.14258
830.00000,2758.28345
832.00000,2632.45068
834.00000,2376.17212
836.00000,2064.57593
838.00000,1774.67139
840.00000,1578.17957
842.00000,1474.26465
844.00000,1412.40588
846.00000,1379.24390
848.00000,1387.44360
850.00000,1361.42419
852.00000,1312.83142
854.00000,1253.31250
856.00000,1171.56470
858.00000,1075.89795
860.00000,972.44995
862.00000,891.88751
864.00000,834.11285
866.00000,762.41205
868.00000,696.63300
870.00000,626.04968
872.00000,526.24054
874.00000,410.34814
876.00000,339.80316
878.00000,301.89664
880.00000,282.44797
882.00000,276.93771
884.00000,278.85559
886.00000,289.56940
888.00000,288.86404
890.00000,273.47891
892.00000,255.47935
894.00000,227.70250
896.00000,198.89561
898.00000,178.39481
900.00000,165.93761
902.00000,152.26770
904.00000,131.88730
906.00000,133.71922
908.00000,149.49239
910.00000,138.30472
912.00000,112.10201
914.00000,104.67805
916.00000,99.78051
918.00000,76.35991
920.00000,66.06404
922.00000,87.89223
924.00000,88.71609
926.00000,59.03942
928.00000,47.39826
930.00000,42.54440
932.00000,56.00376
934.00000,65.26394
936.00000,50.36980
938.00000,47.38644
940.00000,67.80410
942.00000,84.40191
944.00000,78.28582
946.00000,68.32036
948.00000,81.99837
950.00000,83.56911
952.00000,106.71442
954.00000,172.12590
956.00000,186.00310
958.00000,215.12505
960.00000,267.66190
962.00000,282.04364
964.00000,238.13316
966.00000,232.21109
968.00000,212.50987
970.00000,171.89198
972.00000,156.38705
974.00000,132.52992
976.00000,93.82942
978.00000,61.68499
980.00000,65.96292
982.00000,110.65484
984.00000,141.94724
986.00000,147.79953
988.00000,144.85756
990.00000,135.31946
992.00000,97.13678
994.00000,72.35985
996.00000,61.56004
998.00000,62.56488
1000.00000,88.51002
1002.00000,59.90729
1004.00000,59.31916
1006.00000,95.41527
1008.00000,88.05111
1010.00000,89.68552
1012.00000,98.98688
1014.00000,83.03068
1016.00000,62.97978
1018.00000,105.02310
1020.00000,141.66389
1022.00000,184.18214
1024.00000,241.81030
1026.00000,289.02621
1028.00000,344.91031
1030.00000,378.48611
1032.00000,390.31299
1034.00000,381.90182
1036.00000,321.01694
1038.00000,261.99304
1040.00000,241.40402
1042.00000,220.22723
1044.00000,158.66110
1046.00000,141.03026
1048.00000,130.08430
1050.00000,107.65746
1052.00000,93.62959
1054.00000,80.64081
1056.00000,76.36156
1058.00000,84.21208
1060.00000,82.22936
1062.00000,50.42977
1064.00000,32.29116
1066.00000,44.79547
1068.00000,63.57708
1070.00000,57.43056
1072.00000,37.17815
1074.00000,60.81335
1076.00000,97.91516
1078.00000,106.57262
1080.00000,104.56116
1082.00000,103.33193
1084.00000,108.38070
1086.00000,102.01445
1088.00000,82.46651
1090.00000,95.94753
1092.00000,106.72973
1094.00000,97.70251
1096.00000,84.50289
1098.00000,82.97816
1100.00000,88.50129
1102.00000,76.69816
1104.00000,57.25677
1106.00000,61.01582
1108.00000,77.70416
1110.00000,83.46117
1112.00000,107.38719
1114.00000,151.74854
1116.00000,159.47699
1118.00000,174.36392
1120.00000,205.47963
1122.00000,240.11108
1124.00000,250.35393
1126.00000,194.93509
1128.00000,182.21860
1130.00000,179.39348
1132.00000,142.16960
1134.00000,170.58075
1136.00000,199.62276
1138.00000,207.37486
1140.00000,219.05580
1142.00000,247.30765
1144.00000,268.93188
1146.00000,286.41504
1148.00000,296.39899
1150.00000,303.01361
1152.00000,328.79837
1154.00000,343.67130
1156.00000,330.67368
1158.00000,318.67300
1160.00000,338.64484
1162.00000,345.61417
1164.00000,343.66360
1166.00000,325.49933
1168.00000,280.42133
1170.00000,235.93793
1172.00000,196.82143
1174.00000,142.81262
1176.00000,78.00378
1178.00000,49.25510
1180.00000,84.10412
1182.00000,92.32542
1184.00000,59.14849
1186.00000,47.14332
1188.00000,54.01202
1190.00000,38.08107
1192.00000,30.59626
1194.00000,46.02686
1196.00000,45.16729
1198.00000,73.89043
1200.00000,95.69837
1202.00000,111.78266
1204.00000,153.90903
1206.00000,186.84015
1208.00000,262.63904
1210.00000,385.19394
1212.00000,527.33594
1214.00000,692.46625
1216.00000,890.51086
1218.00000,1103.73328
1220.00000,1277.49207
1222.00000,1337.99426
1224.00000,1241.20679
1226.00000,1046.13867
1228.00000,822.19019
1230.00000,615.20758
1232.00000,440.43173
1234.00000,266.06940
1236.00000,152.78831
1238.00000,136.54768
1240.00000,166.98935
1242.00000,184.11559
1244.00000,165.91638
1246.00000,157.88115
1248.00000,197.01244
1250.00000,234.70549
1252.00000,205.18451
1254.00000,156.96626
1256.00000,133.18069
1258.00000,112.99373
1260.00000,97.87582
1262.00000,71.87420
1264.00000,79.00905
1266.00000,139.02271
1268.00000,173.79436
1270.00000,223.88208
1272.00000,284.88885
1274.00000,339.68817
1276.00000,412.53299
1278.00000,522.31531
1280.00000,582.13916
1282.00000,591.07336
1284.00000,616.86450
1286.00000,649.06299
1288.00000,645.60767
1290.00000,612.74554
1292.00000,588.52838
1294.00000,584.19183
1296.00000,550.54230
1298.00000,500.82022
1300.00000,450.37180
1302.00000,410.29031
1304.00000,412.28546
1306.00000,404.79474
1308.00000,381.17499
1310.00000,369.75824
1312.00000,370.54947
1314.00000,349.74478
1316.00000,353.29196
1318.00000,368.64246
1320.00000,329.13818
1322.00000,255.43141
1324.00000,206.34581
1326.00000,193.46021
1328.00000,168.63580
1330.00000,94.54617
1332.00000,58.09714
1334.00000,84.22176
1336.00000,93.32533
1338.00000,32.14468
1340.00000,16.71631
1342.00000,36.45437
1344.00000,41.08286
1346.00000,25.27910
1348.00000,28.05581
1350.00000,43.51249
1352.00000,61.00260
1354.00000,82.54747
1356.00000,111.86354
1358.00000,135.30165
1360.00000,153.52748
1362.00000,176.00258
1364.00000,188.52951
1366.00000,162.29944
1368.00000,157.74399
1370.00000,155.62166
1372.00000,148.11308
1374.00000,154.90915
1376.00000,100.60140
1378.00000,58.90548
1380.00000,59.77483
1382.00000,65.67413
1384.00000,66.33144
1386.00000,37.38912
1388.00000,59.48381
1390.00000,113.02524
1392.00000,78.67030
1394.00000,82.63538
1396.00000,129.91872
1398.00000,160.12659
1400.00000,144.16057
1402.00000,108.44520
1404.00000,80.65250
1406.00000,83.25610
1408.00000,90.99008
1410.00000,59.79029
1412.00000,51.73838
1414.00000,80.20159
1416.00000,110.43099
1418.00000,112.61316
1420.00000,100.02151
1422.00000,88.92691
1424.00000,115.83940
1426.00000,174.27403
1428.00000,210.71571
1430.00000,262.61902
1432.00000,339.47003
1434.00000,435.71448
1436.00000,550.27203
1438.00000,673.22211
1440.00000,778.33704
1442.00000,910.80389
1444.00000,1067.69873
1446.00000,1151.15881
1448.00000,1230.15955
1450.00000,1299.84656
1452.00000,1344.21252
1454.00000,1368.40796
1456.00000,1341.85522
1458.00000,1329.64893
1460.00000,1322.30566
1462.00000,1283.26050
1464.00000,1259.95422
1466.00000,1284.05933
1468.00000,1280.04126
1470.00000,1258.67041
1472.00000,1300.06836
1474.00000,1293.78687
1476.00000,1217.08496
1478.00000,1115.45959
1480.00000,998.32861
1482.00000,812.95837
1484.00000,625.21753
1486.00000,512.24042
1488.00000,444.59140
1490.00000,341.20871
1492.00000,265.35944
1494.00000,210.47655
1496.00000,164.46313
1498.00000,119.23003
1500.00000,49.94478
1502.00000,18.51720
1504.00000,24.72608
1506.00000,49.33412
1508.00000,79.97781
1510.00000,42.92213
1512.00000,56.36286
1514.00000,83.99773
1516.00000,32.88048
1518.00000,52.34626
1520.00000,53.99487
1522.00000,29.31583
1524.00000,31.90302
1526.00000,47.53004
1528.00000,28.78845
1530.00000,56.06295
1532.00000,94.39542
1534.00000,53.41227
1536.00000,42.83831
1538.00000,57.16052
1540.00000,65.53598
1542.00000,55.22639
1544.00000,37.72481
1546.00000,65.45010
1548.00000,125.27048
1550.00000,133.25143
1552.00000,80.79013
1554.00000,127.74812
1556.00000,97.60712
1558.00000,67.04218
1560.00000,122.12115
1562.00000,76.59393
1564.00000,112.81827
1566.00000,153.24756
1568.00000,144.45177
1570.00000,173.15707
1572.00000,170.09105
1574.00000,168.49246
1576.00000,177.87065
1578.00000,162.12299
1580.00000,131.43987
1582.00000,195.04504
1584.00000,215.98285
1586.00000,168.23131
1588.00000,200.88654
1590.00000,195.30118
1592.00000,176.68990
1594.00000,172.83331
1596.00000,169.40460
1598.00000,165.44972
1600.00000,129.75000
1602.00000,124.79582
1604.00000,186.17258
1606.00000,235.42816
1608.00000,198.48398
1610.00000,177.69269
1612.00000,142.98586
1614.00000,65.83924
1616.00000,143.97075
1618.00000,177.56604
1620.00000,112.09364
1622.00000,93.42958
1624.00000,191.60172
1626.00000,165.19209
1628.00000,68.75494
1630.00000,35.45932
1632.00000,63.94163
1634.00000,57.14371
1636.00000,64.26685
1638.00000,90.30265
1640.00000,107.01551
1642.00000,106.61409
1644.00000,50.73233
1646.00000,24.43714
1648.00000,61.45457
1650.00000,83.93768
1652.00000,45.13714
1654.00000,59.67888
1656.00000,89.76598
1658.00000,86.30814
1660.00000,130.10434
1662.00000,122.10876
1664.00000,88.48282
1666.00000,57.45359
1668.00000,16.11634
1670.00000,29.03555
1672.00000,77.49747
1674.00000,114.27100
1676.00000,119.87185
1678.00000,122.32739
1680.00000,163.25757
1682.00000,149.98848
1684.00000,98.96726
1686.00000,140.27106
1688.00000,199.24501
1690.00000,212.35728
1692.00000,205.75114
1694.00000,223.24086
1696.00000,238.31635
1698.00000,218.83958
1700.00000,174.07684
1702.00000,174.25000
1704.00000,254.80446
1706.00000,273.22699
1708.00000,234.47813
1710.00000,271.09946
1712.00000,377.97910
1714.00000,326.01605
1716.00000,295.03500
1718.00000,291.20657
1720.00000,261.67407
1722.00000,248.17273
1724.00000,198.04047
1726.00000,260.74072
1728.00000,325.43890
1730.00000,229.89352
1732.00000,221.10880
1734.00000,186.56691
1736.00000,155.43396
1738.00000,185.56700
1740.00000,186.00275
1742.00000,169.25037
1744.00000,233.08342
1746.00000,288.38000
1748.00000,201.90358
1750.00000,140.48735
1752.00000,155.91945
1754.00000,129.95537
1756.00000,56.53954
1758.00000,99.12342
1760.00000,108.48472
1762.00000,107.55701
1764.00000,127.53542
1766.00000,104.57112
1768.00000,24.84974
1770.00000,-7.75530
1772.00000,4.04318
1774.00000,7.73720
1776.00000,36.06110
1778.00000,119.92062
1780.00000,133.02246
1782.00000,54.60966
1784.00000,18.57466
1786.00000,44.37059
1788.00000,71.61182
1790.00000,87.87688
1792.00000,99.76022
1794.00000,101.54105
1796.00000,203.54272
1798.00000,182.58525
1800.00000,51.86176
1802.00000,106.29500
1804.00000,148.28253
1806.00000,128.04407
1808.00000,137.48756
1810.00000,220.58582
1812.00000,268.68839
1814.00000,217.58727
1816.00000,175.84349
1818.00000,187.26093
1820.00000,173.34683
1822.00000,208.26744
1824.00000,236.58363
1826.00000,286.56479
1828.00000,365.50970
1830.00000,306.85132
1832.00000,317.69739
1834.00000,355.68771
1836.00000,312.86896
1838.00000,303.05865
1840.00000,434.02066
1842.00000,363.26505
1844.00000,266.67551
1846.00000,451.23251
1848.00000,393.45126
1850.00000,362.87970
1852.00000,325.73627
1854.00000,244.66635
1856.00000,362.42593
1858.00000,324.84579
1860.00000,309.00705
1862.00000,342.14923
1864.00000,227.04282
1866.00000,176.35052
1868.00000,214.27679
1870.00000,242.80948
1872.00000,220.05363
1874.00000,215.96582
1876.00000,234.04950
1878.00000,170.46387
1880.00000,46.48541
1882.00000,1.28484
1884.00000,20.24285
1886.00000,-15.01326
1888.00000,56.58574
1890.00000,226.30077
1892.00000,110.25289
1894.00000,103.55337
1896.00000,119.40443
1898.00000,89.50282
1900.00000,159.74429
1902.00000,108.92857
1904.00000,180.93416
1906.00000,285.62112
1908.00000,216.65746
1910.00000,192.42386
1912.00000,181.18927
1914.00000,96.72716
1916.00000,88.71905
1918.00000,288.16544
1920.00000,234.74104
1922.00000,215.37534
1924.00000,316.46259
1926.00000,302.30484
1928.00000,209.80290
1930.00000,275.32224
1932.00000,348.81943
1934.00000,320.89728
1936.00000,352.46268
1938.00000,355.78152
1940.00000,387.90186
1942.00000,356.66028
1944.00000,241.19322
1946.00000,369.19928
1948.00000,388.50162
1950.00000,384.61902
1952.00000,473.45526
1954.00000,401.82339
1956.00000,309.40503
1958.00000,420.97714
1960.00000,437.82944
1962.00000,182.66147
1964.00000,412.20670
1966.00000,517.94159
1968.00000,393.63678
1970.00000,328.80450
1972.00000,278.80673
1974.00000,247.51392
1976.00000,253.05360
1978.00000,260.67676
1980.00000,240.41272
1982.00000,250.82970
1984.00000,194.62550
1986.00000,154.36888
1988.00000,149.67096
1990.00000,34.77856
1992.00000,177.23567
1994.00000,193.14235
1996.00000,36.53758
1998.00000,116.51884
2000.00000,48.73374
2002.00000,55.58552
2004.00000,141.06381
2006.00000,121.18063
2008.00000,129.10802
2010.00000,148.88368
2012.00000,143.14023
2014.00000,122.20628
2016.00000,88.25222
2018.00000,84.03058
2020.00000,89.70573
2022.00000,77.85388
2024.00000,85.37928
2026.00000,91.86379
2028.00000,65.02499
2030.00000,42.21051
2032.00000,84.85136
2034.00000,82.21210
2036.00000,60.66806
2038.00000,69.61822
2040.00000,80.33905
2042.00000,48.32977
2044.00000,53.70458
2046.00000,82.11891
2048.00000,61.48540
2050.00000,37.17657
2052.00000,39.77919
2054.00000,60.60038
2056.00000,77.01743
2058.00000,83.62766
2060.00000,93.92264
2062.00000,97.06773
2064.00000,85.58950
2066.00000,73.28703
2068.00000,66.07069
2070.00000,54.14192
2072.00000,52.18919
2074.00000,67.36053
2076.00000,44.64391
2078.00000,36.23948
2080.00000,55.80635
2082.00000,60.55279
2084.00000,36.87097
2086.00000,39.68788
2088.00000,66.60435
2090.00000,80.46794
2092.00000,72.03150
2094.00000,61.33864
2096.00000,74.86225
2098.00000,93.69410
2100.00000,85.06815
2102.00000,100.32395
2104.00000,108.46557
2106.00000,98.43150
2108.00000,97.71818
2110.00000,99.36790
2112.00000,89.66518
2114.00000,78.93495
2116.00000,83.32948
2118.00000,92.11582
2120.00000,75.83790
2122.00000,66.09185
2124.00000,80.03945
2126.00000,85.10902
2128.00000,102.20454
2130.00000,98.10918
2132.00000,83.51826
2134.00000,104.01444
2136.00000,112.27914
2138.00000,135.25371
2140.00000,164.38388
2142.00000,159.15659
2144.00000,139.01202
2146.00000,155.96530
2148.00000,191.10390
2150.00000,196.84225
2152.00000,171.83595
2154.00000,140.29224
2156.00000,125.54542
2158.00000,153.76320
2160.00000,201.90164
2162.00000,133.96567
2164.00000,116.92558
2166.00000,179.16016
2168.00000,164.24625
2170.00000,122.28248
2172.00000,100.00135
2174.00000,82.12048
2176.00000,67.96899
2178.00000,113.16605
2180.00000,116.72989
2182.00000,97.44777
2184.00000,99.43494
2186.00000,83.19619
2188.00000,99.35226
2190.00000,123.33043
2192.00000,119.99090
2194.00000,96.71880
2196.00000,61.64420
2198.00000,58.68118
2200.00000,84.56212
2202.00000,91.17863
2204.00000,69.65338
2206.00000,75.57301
2208.00000,93.05436
2210.00000,88.03761
2212.00000,96.91442
2214.00000,113.46911
2216.00000,100.83131
2218.00000,71.53427
2220.00000,77.60307
2222.00000,63.28901
2224.00000,63.69444
2226.00000,96.90759
2228.00000,115.24944
2230.00000,105.97413
2232.00000,119.27689
2234.00000,128.87459
2236.00000,94.54363
2238.00000,91.34782
2240.00000,108.56860
2242.00000,104.62049
2244.00000,64.29308
2246.00000,31.29696
2248.00000,91.20902
2250.00000,136.04381
2252.00000,89.70956
2254.00000,52.85981
2256.00000,98.05650
2258.00000,120.96362
2260.00000,102.19781
2262.00000,117.88648
2264.00000,114.26479
2266.00000,98.10641
2268.00000,104.80336
2270.00000,128.26840
2272.00000,113.80306
2274.00000,110.15433
2276.00000,135.14020
2278.00000,150.06262
2280.00000,125.90108
2282.00000,134.29288
2284.00000,159.50856
2286.00000,135.07974
2288.00000,76.44944
2290.00000,141.36864
2292.00000,163.99409
2294.00000,112.61681
2296.00000,127.20458
2298.00000,169.20650
2300.00000,181.22141
2302.00000,163.25957
2304.00000,158.91547
2306.00000,184.26346
2308.00000,153.35309
2310.00000,138.54161
2312.00000,162.14030
2314.00000,110.27346
2316.00000,87.20364
2318.00000,111.03628
2320.00000,129.26617
2322.00000,121.19308
2324.00000,143.31543
2326.00000,153.11774
2328.00000,138.48624
2330.00000,127.04001
2332.00000,109.64124
2334.00000,109.34340
2336.00000,146.57864
2338.00000,168.97687
2340.00000,101.00461
2342.00000,105.27618
2344.00000,129.20639
2346.00000,98.56600
2348.00000,81.34816
2350.00000,88.92286
2352.00000,97.38416
2354.00000,97.83241
2356.00000,90.61710
2358.00000,57.16003
2360.00000,63.71647
2362.00000,86.37125
2364.00000,64.07947
2366.00000,37.41218
2368.00000,23.85013
2370.00000,20.32200
2372.00000,20.63146
2374.00000,33.52207
2376.00000,84.74436
2378.00000,93.11884
2380.00000,56.49837
2382.00000,69.42265
2384.00000,77.68852
2386.00000,68.04471
2388.00000,56.25600
2390.00000,62.74032
2392.00000,98.32005
2394.00000,97.62459
2396.00000,92.81152
2398.00000,133.68817
2400.00000,151.67281
2402.00000,104.21284
2404.00000,91.84302
2406.00000,142.65573
2408.00000,136.25598
2410.00000,115.08772
2412.00000,106.79718
2414.00000,97.06731
2416.00000,90.29726
2418.00000,150.73305
2420.00000,162.94589
2422.00000,124.20045
2424.00000,118.35976
2426.00000,104.54160
2428.00000,111.81979
2430.00000,125.76248
2432.00000,127.09388
2434.00000,145.31784
2436.00000,149.29793
2438.00000,136.57036
2440.00000,135.32730
2442.00000,158.89987
2444.00000,165.47884
2446.00000,162.58559
2448.00000,161.38757
2450.00000,150.09106
2452.00000,128.20125
2454.00000,151.17561
2456.00000,181.67020
2458.00000,167.92130
2460.00000,172.60876
2462.00000,172.18965
2464.00000,144.00516
2466.00000,112.14042
2468.00000,120.19382
2470.00000,142.09160
2472.00000,143.26097
2474.00000,117.11012
2476.00000,98.66921
2478.00000,136.80811
2480.00000,145.05872
2482.00000,112.79842
2484.00000,111.03603
2486.00000,117.58031
2488.00000,86.28706
2490.00000,65.69628
2492.00000,81.02559
2494.00000,51.18204
2496.00000,89.12572
2498.00000,121.26775
2500.00000,79.30214
2502.00000,62.92578
2504.00000,72.24641
2506.00000,81.53656
2508.00000,75.66961
2510.00000,52.28225
2512.00000,15.90813
2514.00000,16.38412
2516.00000,43.10577
2518.00000,50.48672
2520.00000,52.06007
2522.00000,48.96630
2524.00000,51.60038
2526.00000,58.79047
2528.00000,53.20938
2530.00000,72.79704
2532.00000,71.52795
2534.00000,56.20689
2536.00000,96.02773
2538.00000,83.15253
2540.00000,72.14410
2542.00000,94.42592
2544.00000,92.47543
2546.00000,69.92826
2548.00000,84.75810
2550.00000,120.84635
2552.00000,111.75695
2554.00000,61.27205
2556.00000,86.26568
2558.00000,151.95555
2560.00000,153.31085
2562.00000,104.66589
2564.00000,155.33076
2566.00000,183.76622
2568.00000,143.37704
2570.00000,165.27911
2572.00000,164.09344
2574.00000,164.48978
2576.00000,197.52547
2578.00000,206.83183
2580.00000,118.49773
2582.00000,122.34406
2584.00000,170.77086
2586.00000,151.48055
2588.00000,183.95609
2590.00000,144.95572
2592.00000,133.81940
2594.00000,209.11703
2596.00000,213.77597
2598.00000,214.34535
2600.00000,236.96490
2602.00000,232.35037
2604.00000,181.88026
2606.00000,193.02972
2608.00000,188.27422
2610.00000,180.86401
2612.00000,227.03925
2614.00000,208.39154
2616.00000,137.23335
2618.00000,95.58448
2620.00000,116.06538
2622.00000,135.47276
2624.00000,117.56011
2626.00000,83.24467
2628.00000,63.18445
2630.00000,67.30157
2632.00000,98.87500
2634.00000,86.51914
2636.00000,59.22677
2638.00000,84.11547
2640.00000,47.15909
2642.00000,20.02155
2644.00000,63.39956
2646.00000,104.23421
2648.00000,31.21958
2650.00000,29.81773
2652.00000,47.84339
2654.00000,-0.48505
2656.00000,16.61988
2658.00000,90.41843
2660.00000,77.39451
2662.00000,2.50825
2664.00000,40.25667
2666.00000,90.78394
2668.00000,90.50802
2670.00000,81.89738
2672.00000,100.19292
2674.00000,66.88111
2676.00000,89.96032
2678.00000,145.73624
2680.00000,137.48727
2682.00000,103.83189
2684.00000,102.03704
2686.00000,99.09225
2688.00000,94.04662
2690.00000,144.12976
2692.00000,143.10374
2694.00000,134.69299
2696.00000,112.74489
2698.00000,38.63827
2700.00000,103.50110
2702.00000,159.41280
2704.00000,137.60226
2706.00000,120.99671
2708.00000,104.82594
2710.00000,85.54035
2712.00000,121.75373
2714.00000,201.59996
2716.00000,208.21747
2718.00000,254.15497
2720.00000,304.07074
2722.00000,337.52606
2724.00000,417.24036
2726.00000,410.35709
2728.00000,416.70343
2730.00000,476.83755
2732.00000,476.46225
2734.00000,398.00092
2736.00000,392.65689
2738.00000,426.42300
2740.00000,361.32593
2742.00000,249.65303
2744.00000,231.63855
2746.00000,229.06921
2748.00000,147.96500
2750.00000,84.07323
2752.00000,77.15125
2754.00000,49.54525
2756.00000,18.08419
2758.00000,64.98302
2760.00000,28.74613
2762.00000,-10.49281
2764.00000,3.97302
2766.00000,25.98309
2768.00000,70.71918
2770.00000,128.02817
2772.00000,154.00179
2774.00000,155.56265
2776.00000,205.57782
2778.00000,208.85548
2780.00000,258.39685
2782.00000,347.22903
2784.00000,292.89807
2786.00000,340.39536
2788.00000,443.05820
2790.00000,467.14798
2792.00000,435.62631
2794.00000,460.50488
2796.00000,487.16791
2798.00000,525.09125
2800.00000,594.99042
2802.00000,569.19373
2804.00000,579.40424
2806.00000,653.98883
2808.00000,727.78882
2810.00000,807.48175
2812.00000,933.40002
2814.00000,1127.04932
2816.00000,1289.91785
2818.00000,1334.50854
2820.00000,1530.20886
2822.00000,1783.62451
2824.00000,1939.97424
2826.00000,2053.79980
2828.00000,2272.30103
2830.00000,2360.01636
2832.00000,2393.55518
2834.00000,2551.27393
2836.00000,2588.89111
2838.00000,2543.91602
2840.00000,2580.38525
2842.00000,2682.48462
2844.00000,2645.78296
2846.00000,2595.42603
2848.00000,2511.61890
2850.00000,2342.15332
2852.00000,2155.60498
2854.00000,2044.04858
2856.00000,1880.98779
2858.00000,1687.54956
2860.00000,1581.14026
2862.00000,1443.97852
2864.00000,1349.81445
2866.00000,1249.45215
2868.00000,1112.84082
2870.00000,1091.18848
2872.00000,969.61523
2874.00000,945.71521
2876.00000,1088.62476
2878.00000,1071.55481
2880.00000,1148.83838
2882.00000,1245.07141
2884.00000,1298.68591
2886.00000,1417.67590
2888.00000,1515.54333
2890.00000,1632.18262
2892.00000,1722.21692
2894.00000,1756.91272
2896.00000,1915.21472
2898.00000,2027.92322
2900.00000,2030.78967
2902.00000,2050.25635
2904.00000,2160.84326
2906.00000,2105.52344
2908.00000,2123.05933
2910.00000,2236.00854
2912.00000,2086.09668
2914.00000,2112.06812
2916.00000,2250.08179
2918.00000,2310.31958
2920.00000,2342.49976
2922.00000,2477.74609
2924.00000,2529.92285
2926.00000,2582.55420
2928.00000,2784.57227
2930.00000,2895.31494
2932.00000,2962.96997
2934.00000,3012.78101
2936.00000,3109.05835
2938.00000,3354.46460
2940.00000,3462.17383
2942.00000,3580.90405
2944.00000,3783.24780
2946.00000,3865.54639
2948.00000,3973.81348
2950.00000,4139.29102
2952.00000,4210.02832
2954.00000,4177.11426
2956.00000,4379.70264
2958.00000,4347.24561
2960.00000,4155.97900
2962.00000,4136.32275
2964.00000,4039.13916
2966.00000,3876.52954
2968.00000,3719.04321
2970.00000,3551.87134
2972.00000,3347.92310
2974.00000,3282.75415
2976.00000,3123.67651
2978.00000,2872.64819
2980.00000,2806.77808
2982.00000,2696.84253
2984.00000,2565.43140
2986.00000,2456.39868
2988.00000,2332.93359
2990.00000,2203.34497
2992.00000,2127.94263
2994.00000,2039.51953
2996.00000,1893.10522
2998.00000,1794.95728
3000.00000,1700.66809
3002.00000,1582.13293
3004.00000,1477.52625
3006.00000,1426.08630
3008.00000,1347.24768
3010.00000,1174.26050
3012.00000,1098.12317
3014.00000,1198.65686
3016.00000,948.76660
3018.00000,904.94800
3020.00000,950.12756
3022.00000,697.79279
3024.00000,708.63739
3026.00000,686.88495
3028.00000,675.50256
3030.00000,778.39679
3032.00000,717.37421
3034.00000,612.61115
3036.00000,470.88501
3038.00000,410.65872
3040.00000,562.69690
3042.00000,492.38641
3044.00000,407.57562
3046.00000,481.67618
3048.00000,507.52173
3050.00000,306.16147
3052.00000,321.36420
3054.00000,365.04468
3056.00000,221.40504
3058.00000,432.69537
3060.00000,471.67026
3062.00000,361.47638
3064.00000,289.70993
3066.00000,119.67774
3068.00000,173.07544
3070.00000,260.16013
3072.00000,200.36877
3074.00000,175.80566
3076.00000,327.08392
3078.00000,258.81238
3080.00000,97.18656
3082.00000,229.02423
3084.00000,334.70175
3086.00000,328.91040
3088.00000,271.80399
3090.00000,254.66986
3092.00000,290.34692
3094.00000,163.96883
3096.00000,138.66867
3098.00000,260.57184
3100.00000,154.05684
3102.00000,103.01433
3104.00000,166.46289
3106.00000,217.29982
3108.00000,187.99008
3110.00000,203.69534
3112.00000,390.77933
3114.00000,515.75317
3116.00000,403.42053
3118.00000,376.91638
3120.00000,220.37727
3122.00000,188.54439
3124.00000,402.21982
3126.00000,389.97061
3128.00000,420.66644
3130.00000,500.66043
3132.00000,354.10410
3134.00000,9.84402
3136.00000,237.97145
3138.00000,380.10580
3140.00000,302.86633
3142.00000,472.59375
3144.00000,382.12103
3146.00000,299.08105
3148.00000,213.47462
3150.00000,78.13840
3152.00000,323.87195
3154.00000,521.15051
3156.00000,444.38272
3158.00000,282.17056
3160.00000,269.62854
3162.00000,227.30751
3164.00000,200.32967
3166.00000,205.58534
3168.00000,174.76555
3170.00000,255.12143
3172.00000,184.17668
3174.00000,23.38181
3176.00000,3.40942
3178.00000,-52.60945
3180.00000,237.31270
3182.00000,333.68542
3184.00000,-1.37403
3186.00000,213.27602
3188.00000,179.36638
3190.00000,117.83784
3192.00000,252.73033
3194.00000,98.77652
3196.00000,146.21045
3198.00000,180.37904
3200.00000,66.09640
