300.00000,1023.07422
302.00000,917.35315
304.00000,794.91882
306.00000,665.19897
308.00000,553.36072
310.00000,466.51324
312.00000,394.91907
314.00000,338.52930
316.00000,302.69388
318.00000,292.55722
320.00000,291.74890
322.00000,272.95538
324.00000,247.51999
326.00000,221.09155
328.00000,214.28279
330.00000,225.45557
332.00000,194.39238
334.00000,133.27869
336.00000,87.56221
338.00000,77.24007
340.00000,87.32834
342.00000,119.06007
344.00000,135.26514
346.00000,187.48958
348.00000,317.90347
350.00000,398.08142
352.00000,513.11145
354.00000,612.76715
356.00000,631.08051
358.00000,642.00952
360.00000,622.03290
362.00000,565.46167
364.00000,481.08514
366.00000,379.45779
368.00000,286.29422
370.00000,234.13286
372.00000,200.13133
374.00000,177.16609
376.00000,202.13228
378.00000,191.78543
380.00000,168.78609
382.00000,157.28224
384.00000,135.78476
386.00000,127.08727
388.00000,102.05346
390.00000,73.75528
392.00000,68.94427
394.00000,70.00198
396.00000,88.55807
398.00000,96.67591
400.00000,82.23032
402.00000,71.04794
404.00000,65.81660
406.00000,58.95815
408.00000,60.14183
410.00000,72.53960
412.00000,72.68800
414.00000,75.73117
416.00000,59.05458
418.00000,38.95708
420.00000,61.63911
422.00000,57.89717
424.00000,47.59020
426.00000,68.61517
428.00000,100.27563
430.00000,81.76451
432.00000,57.58887
434.00000,46.91420
436.00000,40.45684
438.00000,44.26190
440.00000,78.70669
442.00000,99.14473
444.00000,93.29109
446.00000,95.54780
448.00000,116.95003
450.00000,142.94160
452.00000,161.62994
454.00000,171.35634
456.00000,187.29015
458.00000,243.41202
460.00000,273.25830
462.00000,257.41275
464.00000,243.91269
466.00000,230.82295
468.00000,215.13004
470.00000,209.69080
472.00000,207.88869
474.00000,174.41249
476.00000,121.61666
478.00000,95.61270
480.00000,103.12518
482.00000,111.78407
484.00000,118.37840
486.00000,121.49036
488.00000,120.69337
490.00000,127.68071
492.00000,150.98846
494.00000,140.22166
496.00000,118.23598
498.00000,105.98806
500.00000,93.83819
502.00000,107.89259
504.00000,106.72460
506.00000,85.46890
508.00000,69.70960
510.00000,57.83531
512.00000,60.77288
514.00000,87.51526
516.00000,130.44687
518.00000,164.35121
520.00000,169.02472
522.00000,181.46959
524.00000,221.98024
526.00000,271.63126
528.00000,308.96133
530.00000,351.69995
532.00000,404.93805
534.00000,448.22693
536.00000,450.36755
538.00000,399.56042
540.00000,337.01428
542.00000,285.96329
544.00000,234.62395
546.00000,179.16545
548.00000,154.05399
550.00000,148.01242
552.00000,140.71112
554.00000,135.63785
556.00000,115.47736
558.00000,129.66664
560.00000,175.97450
562.00000,212.84537
564.00000,267.09854
566.00000,328.17120
568.00000,377.69623
570.00000,418.60602
572.00000,460.39456
574.00000,468.28131
576.00000,478.48547
578.00000,483.49210
580.00000,431.46457
582.00000,356.88876
584.00000,327.87766
586.00000,318.06024
588.00000,282.53113
590.00000,249.11148
592.00000,220.16074
594.00000,187.32390
596.00000,164.89549
598.00000,169.64418
600.00000,169.13347
602.00000,154.18256
604.00000,140.72421
606.00000,144.62909
608.00000,156.40326
610.00000,144.19121
612.00000,122.40202
614.00000,114.56022
616.00000,116.59890
618.00000,111.54565
620.00000,106.60442
622.00000,109.65358
624.00000,107.93925
626.00000,85.19781
628.00000,88.57099
630.00000,76.99999
632.00000,51.31263
634.00000,72.76923
636.00000,64.69113
638.00000,68.29972
640.00000,83.44271
642.00000,69.15685
644.00000,64.31995
646.00000,110.11620
648.00000,145.81621
650.00000,149.88429
652.00000,189.99751
654.00000,236.45934
656.00000,313.70123
658.00000,419.32111
660.00000,533.60419
662.00000,682.82074
664.00000,801.66437
666.00000,860.57733
668.00000,857.92255
670.00000,788.95990
672.00000,693.08044
674.00000,602.90814
676.00000,521.03625
678.00000,439.36853
680.00000,367.43307
682.00000,289.58521
684.00000,230.26990
686.00000,205.24646
688.00000,178.88884
690.00000,147.68381
692.00000,125.12273
694.00000,105.60799
696.00000,92.21719
698.00000,128.68425
700.00000,110.04166
702.00000,76.43851
704.00000,84.55165
706.00000,54.49149
708.00000,87.21085
710.00000,112.26708
712.00000,94.74281
714.00000,125.54034
716.00000,200.04994
718.00000,236.39024
720.00000,274.04016
722.00000,377.29620
724.00000,476.39410
726.00000,540.63245
728.00000,626.01910
730.00000,721.91309
732.00000,760.57806
734.00000,822.58154
736.00000,870.23376
738.00000,897.24597
740.00000,928.64355
742.00000,935.39111
744.00000,947.10944
746.00000,966.66534
748.00000,965.86792
750.00000,922.34583
752.00000,848.60034
754.00000,764.97302
756.00000,672.96808
758.00000,571.80865
760.00000,482.59534
762.00000,401.58911
764.00000,325.10590
766.00000,269.47925
768.00000,244.20813
770.00000,194.44257
772.00000,148.90012
774.00000,141.26422
776.00000,157.78801
778.00000,163.11897
780.00000,141.43326
782.00000,108.33530
784.00000,87.82005
786.00000,86.97662
788.00000,93.79423
790.00000,81.39608
792.00000,63.12598
794.00000,66.62712
796.00000,64.52456
798.00000,77.49533
800.00000,101.43182
802.00000,134.92389
804.00000,195.57373
806.00000,214.97665
808.00000,222.68713
810.00000,257.00787
812.00000,322.55496
814.00000,452.33530
816.00000,610.07159
818.00000,839.01312
820.00000,1179.50769
822.00000,1562.14246
824.00000,1984.06775
826.00000,2411.68945
828.00000,2728.30859
830.00000,2808.98755
832.00000,2670.79688
834.00000,2377.38354
836.00000,2054.27417
838.00000,1803.06128
840.00000,1617.67908
842.00000,1505.22351
844.00000,1464.96179
846.00000,1467.18030
848.00000,1469.23596
850.00000,1456.05005
852.00000,1390.79333
854.00000,1290.47632
856.00000,1207.57581
858.00000,1144.92664
860.00000,1051.88525
862.00000,954.85730
864.00000,878.77533
866.00000,792.60217
868.00000,706.25189
870.00000,625.53265
872.00000,552.73285
874.00000,478.07166
876.00000,383.35083
878.00000,322.70987
880.00000,303.61005
882.00000,289.62247
884.00000,262.48950
886.00000,254.73051
888.00000,273.99225
890.00000,290.49567
892.00000,283.40970
894.00000,283.63873
896.00000,279.22226
898.00000,267.54300
900.00000,261.83466
902.00000,257.52127
904.00000,209.79672
906.00000,160.64304
908.00000,150.35559
910.00000,158.10434
912.00000,143.70547
914.00000,108.99427
916.00000,98.62617
918.00000,126.87200
920.00000,138.96794
922.00000,116.13517
924.00000,94.34611
926.00000,91.86378
928.00000,86.20798
930.00000,69.86971
932.00000,64.64846
934.00000,61.85088
936.00000,54.22156
938.00000,67.52360
940.00000,61.21722
942.00000,52.50768
944.00000,63.13620
946.00000,80.49996
948.00000,107.07241
950.00000,122.75725
952.00000,145.16264
954.00000,185.86992
956.00000,198.00629
958.00000,209.86717
960.00000,228.34492
962.00000,250.05949
964.00000,270.14429
966.00000,243.96953
968.00000,201.34416
970.00000,156.88092
972.00000,108.04679
974.00000,87.70151
976.00000,81.74798
978.00000,90.17670
980.00000,107.03355
982.00000,108.41764
984.00000,107.87964
986.00000,122.22923
988.00000,120.24344
990.00000,99.78748
992.00000,145.38957
994.00000,108.45710
996.00000,61.31536
998.00000,76.44269
1000.00000,46.55597
1002.00000,105.81031
1004.00000,121.28685
1006.00000,68.11538
1008.00000,72.30392
1010.00000,59.20727
1012.00000,37.55228
1014.00000,36.74525
1016.00000,60.84006
1018.00000,98.34197
1020.00000,152.74544
1022.00000,181.54059
1024.00000,197.51309
1026.00000,255.81760
1028.00000,316.73929
1030.00000,338.66721
1032.00000,330.74329
1034.00000,318.22485
1036.00000,297.19525
1038.00000,266.74576
1040.00000,231.98296
1042.00000,199.60718
1044.00000,168.39955
1046.00000,126.53711
1048.00000,94.82706
1050.00000,78.46893
1052.00000,75.24429
1054.00000,90.81514
1056.00000,75.41576
1058.00000,78.71136
1060.00000,105.59001
1062.00000,84.03748
1064.00000,69.61646
1066.00000,68.70698
1068.00000,72.58492
1070.00000,78.52313
1072.00000,75.87825
1074.00000,61.13959
1076.00000,59.20175
1078.00000,66.22298
1080.00000,57.51931
1082.00000,86.64744
1084.00000,85.17473
1086.00000,82.77711
1088.00000,135.54758
1090.00000,123.25254
1092.00000,99.99457
1094.00000,79.90858
1096.00000,54.15836
1098.00000,53.27063
1100.00000,65.78713
1102.00000,52.84838
1104.00000,31.76044
1106.00000,45.54307
1108.00000,67.22232
1110.00000,87.91634
1112.00000,109.99518
1114.00000,138.91449
1116.00000,171.75665
1118.00000,178.97105
1120.00000,168.96187
1122.00000,174.27258
1124.00000,196.74033
1126.00000,180.95677
1128.00000,156.22470
1130.00000,175.70731
1132.00000,209.18420
1134.00000,171.90965
1136.00000,177.72246
1138.00000,168.20605
1140.00000,148.65378
1142.00000,215.97453
1144.00000,254.38547
1146.00000,239.09973
1148.00000,237.22223
1150.00000,272.01407
1152.00000,272.29492
1154.00000,294.82596
1156.00000,338.34033
1158.00000,344.44470
1160.00000,302.82751
1162.00000,311.54721
1164.00000,290.73367
1166.00000,258.92285
1168.00000,259.41269
1170.00000,186.75859
1172.00000,137.45099
1174.00000,132.07713
1176.00000,122.93876
1178.00000,90.43482
1180.00000,62.75847
1182.00000,76.17902
1184.00000,85.07122
1186.00000,47.62900
1188.00000,37.48594
1190.00000,34.80872
1192.00000,67.79231
1194.00000,112.06021
1196.00000,90.92721
1198.00000,125.34264
1200.00000,160.72520
1202.00000,176.88683
1204.00000,220.31516
1206.00000,252.10321
1208.00000,303.18262
1210.00000,396.73389
1212.00000,538.40765
1214.00000,727.73334
1216.00000,932.36609
1218.00000,1129.56262
1220.00000,1282.84741
1222.00000,1341.13721
1224.00000,1270.11890
1226.00000,1062.75061
1228.00000,830.43976
1230.00000,650.54590
1232.00000,470.06143
1234.00000,339.15216
1236.00000,237.98814
1238.00000,172.66270
1240.00000,185.27933
1242.00000,223.81935
1244.00000,223.14951
1246.00000,210.88910
1248.00000,219.55316
1250.00000,199.73996
1252.00000,167.95567
1254.00000,131.31250
1256.00000,112.96609
1258.00000,121.06565
1260.00000,73.52201
1262.00000,30.50038
1264.00000,34.52757
1266.00000,61.68330
1268.00000,85.89946
1270.00000,114.52346
1272.00000,148.78633
1274.00000,200.19334
1276.00000,287.18103
1278.00000,388.37961
1280.00000,473.49652
1282.00000,542.42084
1284.00000,585.50995
1286.00000,555.54163
1288.00000,509.20749
1290.00000,482.49115
1292.00000,460.00085
1294.00000,412.68192
1296.00000,353.64499
1298.00000,327.72455
1300.00000,332.33386
1302.00000,315.11798
1304.00000,260.26718
1306.00000,278.73517
1308.00000,308.09906
1310.00000,273.22928
1312.00000,251.16605
1314.00000,277.22986
1316.00000,295.78668
1318.00000,282.23676
1320.00000,257.16345
1322.00000,214.46936
1324.00000,199.27122
1326.00000,178.69940
1328.00000,123.52822
1330.00000,91.05399
1332.00000,94.40243
1334.00000,72.33762
1336.00000,28.58672
1338.00000,20.78187
1340.00000,18.92444
1342.00000,21.22132
1344.00000,17.35596
1346.00000,32.04458
1348.00000,107.74582
1350.00000,109.88865
1352.00000,99.53275
1354.00000,139.11565
1356.00000,158.73610
1358.00000,113.28692
1360.00000,126.82190
1362.00000,175.73019
1364.00000,184.69344
1366.00000,212.96133
1368.00000,194.37616
1370.00000,186.31509
1372.00000,199.44519
1374.00000,159.14975
1376.00000,137.21039
1378.00000,105.97437
1380.00000,80.85321
1382.00000,87.04747
1384.00000,70.40123
1386.00000,88.93279
1388.00000,132.18814
1390.00000,150.27507
1392.00000,129.32106
1394.00000,91.77374
1396.00000,64.81207
1398.00000,87.69444
1400.00000,137.76656
1402.00000,106.99757
1404.00000,80.98628
1406.00000,66.74001
1408.00000,57.59056
1410.00000,82.61255
1412.00000,43.01620
1414.00000,20.04997
1416.00000,42.89312
1418.00000,40.68925
1420.00000,13.64022
1422.00000,11.77958
1424.00000,43.57761
1426.00000,102.86963
1428.00000,180.19423
1430.00000,194.45944
1432.00000,245.71059
1434.00000,338.32724
1436.00000,395.07590
1438.00000,520.44733
1440.00000,670.03516
1442.00000,776.41473
1444.00000,878.39203
1446.00000,1050.39807
1448.00000,1116.60876
1450.00000,1161.65833
1452.00000,1221.62451
1454.00000,1211.49658
1456.00000,1219.92004
1458.00000,1175.28625
1460.00000,1136.33569
1462.00000,1164.12878
1464.00000,1148.70300
1466.00000,1152.50415
1468.00000,1180.16016
1470.00000,1198.80945
1472.00000,1201.06104
1474.00000,1189.49927
1476.00000,1122.04102
1478.00000,1017.09741
1480.00000,898.51569
1482.00000,734.14453
1484.00000,617.54449
1486.00000,517.87561
1488.00000,396.85535
1490.00000,305.04950
1492.00000,260.11249
1494.00000,190.28099
1496.00000,137.61023
1498.00000,149.03131
1500.00000,110.76836
1502.00000,99.61885
1504.00000,101.50813
1506.00000,129.41028
1508.00000,218.78705
1510.00000,139.33659
1512.00000,80.49665
1514.00000,120.79491
1516.00000,114.18942
1518.00000,43.56217
1520.00000,26.47788
1522.00000,72.35378
1524.00000,106.10822
1526.00000,93.73824
1528.00000,88.28501
1530.00000,83.16409
1532.00000,63.09431
1534.00000,45.22662
1536.00000,56.44282
1538.00000,86.51546
1540.00000,81.17214
1542.00000,69.39825
1544.00000,134.58289
1546.00000,101.12147
1548.00000,83.79877
1550.00000,120.55685
1552.00000,84.03477
1554.00000,27.86542
1556.00000,44.92261
1558.00000,81.15524
1560.00000,55.82625
1562.00000,22.37896
1564.00000,49.07208
1566.00000,75.24914
1568.00000,53.72044
1570.00000,26.93673
1572.00000,38.52674
1574.00000,85.24185
1576.00000,88.48862
1578.00000,48.75547
1580.00000,97.44331
1582.00000,125.36648
1584.00000,107.01721
1586.00000,82.95258
1588.00000,71.93604
1590.00000,72.53693
1592.00000,76.84692
1594.00000,72.72346
1596.00000,56.61107
1598.00000,53.49421
1600.00000,111.46519
1602.00000,136.94881
1604.00000,111.82077
1606.00000,142.26645
1608.00000,153.39973
1610.00000,111.45952
1612.00000,104.22927
1614.00000,181.14401
1616.00000,207.95724
1618.00000,188.17795
1620.00000,172.72348
1622.00000,185.94260
1624.00000,200.79387
1626.00000,165.74658
1628.00000,127.49314
1630.00000,129.94661
1632.00000,147.54778
1634.00000,138.69209
1636.00000,199.90855
1638.00000,223.27559
1640.00000,175.45924
1642.00000,217.41745
1644.00000,158.98465
1646.00000,116.59880
1648.00000,157.65849
1650.00000,167.05573
1652.00000,131.97668
1654.00000,147.62946
1656.00000,179.91380
1658.00000,140.09813
1660.00000,57.53998
1662.00000,54.58759
1664.00000,86.04188
1666.00000,85.75128
1668.00000,90.30140
1670.00000,161.73442
1672.00000,169.45819
1674.00000,148.41264
1676.00000,161.28273
1678.00000,104.92228
1680.00000,73.53585
1682.00000,70.64394
1684.00000,67.75531
1686.00000,70.99339
1688.00000,72.10819
1690.00000,120.28300
1692.00000,113.54519
1694.00000,23.41676
1696.00000,64.30805
1698.00000,76.73144
1700.00000,93.88853
1702.00000,141.03609
1704.00000,129.27914
1706.00000,165.05693
1708.00000,202.86922
1710.00000,224.40251
1712.00000,240.08452
1714.00000,201.08983
1716.00000,196.43130
1718.00000,180.24660
1720.00000,141.89180
1722.00000,185.86713
1724.00000,244.69296
1726.00000,179.40205
1728.00000,166.55940
1730.00000,278.92734
1732.00000,80.95749
1734.00000,131.44368
1736.00000,265.67941
1738.00000,224.87460
1740.00000,307.48297
1742.00000,314.50558
1744.00000,305.29160
1746.00000,305.82626
1748.00000,249.90208
1750.00000,240.32088
1752.00000,292.49390
1754.00000,293.34570
1756.00000,259.90167
1758.00000,351.74310
1760.00000,352.10022
1762.00000,329.16708
1764.00000,305.18701
1766.00000,222.46886
1768.00000,256.52039
1770.00000,245.30159
1772.00000,221.45128
1774.00000,303.39392
1776.00000,364.91183
1778.00000,229.27377
1780.00000,153.92433
1782.00000,165.23732
1784.00000,48.31084
1786.00000,78.33073
1788.00000,128.53648
1790.00000,115.91754
1792.00000,115.85028
1794.00000,149.20798
1796.00000,84.12187
1798.00000,12.19832
1800.00000,34.10102
1802.00000,93.47265
1804.00000,127.12658
1806.00000,137.20151
1808.00000,104.61729
1810.00000,56.47146
1812.00000,94.24672
1814.00000,72.23582
1816.00000,-1.15542
1818.00000,13.52052
1820.00000,127.20393
1822.00000,81.46262
1824.00000,109.70596
1826.00000,203.43723
1828.00000,170.31541
1830.00000,167.44771
1832.00000,188.23604
1834.00000,147.89728
1836.00000,126.72369
1838.00000,267.47345
1840.00000,289.94751
1842.00000,244.28584
1844.00000,276.81158
1846.00000,307.97461
1848.00000,131.45186
1850.00000,229.86147
1852.00000,349.92200
1854.00000,272.51770
1856.00000,407.72873
1858.00000,427.20624
1860.00000,405.86639
1862.00000,432.03717
1864.00000,395.12524
1866.00000,313.48581
1868.00000,398.77740
1870.00000,412.19879
1872.00000,281.64548
1874.00000,408.48709
1876.00000,353.31555
1878.00000,255.79889
1880.00000,259.83176
1882.00000,232.95529
1884.00000,273.43738
1886.00000,399.34128
1888.00000,451.27692
1890.00000,358.74631
1892.00000,303.72745
1894.00000,299.57535
1896.00000,251.42580
1898.00000,219.06081
1900.00000,290.48038
1902.00000,220.46890
1904.00000,252.25082
1906.00000,298.08270
1908.00000,159.19804
1910.00000,70.90881
1912.00000,21.34455
1914.00000,69.28870
1916.00000,211.80988
1918.00000,296.63626
1920.00000,254.24045
1922.00000,252.45709
1924.00000,172.21239
1926.00000,10.03370
1928.00000,206.96335
1930.00000,81.74654
1932.00000,100.47304
1934.00000,364.37814
1936.00000,112.49464
1938.00000,213.55424
1940.00000,298.25735
1942.00000,149.61270
1944.00000,173.51247
1946.00000,439.68387
1948.00000,336.56512
1950.00000,382.93259
1952.00000,616.03986
1954.00000,154.89497
1956.00000,238.03654
1958.00000,270.29163
1960.00000,142.07050
1962.00000,402.63422
1964.00000,341.87186
1966.00000,311.30804
1968.00000,340.73431
1970.00000,287.63336
1972.00000,341.67407
1974.00000,425.17288
1976.00000,438.57092
1978.00000,437.32516
1980.00000,468.58533
1982.00000,354.68784
1984.00000,325.81091
1986.00000,288.08630
1988.00000,146.52612
1990.00000,184.99944
1992.00000,272.76437
1994.00000,243.15190
1996.00000,148.09068
1998.00000,120.82171
2000.00000,76.13100
2002.00000,68.40655
2004.00000,136.76556
2006.00000,165.96971
2008.00000,187.19656
2010.00000,119.51162
2012.00000,30.90383
2014.00000,47.44623
2016.00000,56.38617
2018.00000,59.79070
2020.00000,65.03254
2022.00000,66.58598
2024.00000,75.12093
2026.00000,58.34370
2028.00000,37.95015
2030.00000,37.58649
2032.00000,42.26417
2034.00000,62.17506
2036.00000,80.12343
2038.00000,64.13844
2040.00000,22.85330
2042.00000,37.51826
2044.00000,67.88549
2046.00000,72.75238
2048.00000,65.01937
2050.00000,68.48465
2052.00000,56.80758
2054.00000,47.00725
2056.00000,52.93301
2058.00000,43.81494
2060.00000,57.18399
2062.00000,72.93928
2064.00000,63.21574
2066.00000,53.74521
2068.00000,88.33429
2070.00000,92.78482
2072.00000,51.24886
2074.00000,37.04548
2076.00000,61.95357
2078.00000,59.14619
2080.00000,44.84010
2082.00000,53.45347
2084.00000,30.87029
2086.00000,38.68660
2088.00000,69.08862
2090.00000,71.13133
2092.00000,50.72000
2094.00000,76.40549
2096.00000,95.50306
2098.00000,78.39457
2100.00000,81.21655
2102.00000,104.61230
2104.00000,103.50865
2106.00000,83.17055
2108.00000,86.14647
2110.00000,105.08611
2112.00000,113.24479
2114.00000,106.87052
2116.00000,109.92471
2118.00000,134.82758
2120.00000,115.44299
2122.00000,112.97157
2124.00000,153.76953
2126.00000,136.75470
2128.00000,77.37694
2130.00000,109.31632
2132.00000,174.40503
2134.00000,109.36317
2136.00000,74.82355
2138.00000,104.80721
2140.00000,129.50777
2142.00000,96.66602
2144.00000,49.44341
2146.00000,40.17733
2148.00000,65.39884
2150.00000,81.40942
2152.00000,64.88658
2154.00000,67.32703
2156.00000,71.10704
2158.00000,53.69762
2160.00000,49.86216
2162.00000,89.38031
2164.00000,81.26041
2166.00000,52.97990
2168.00000,96.08977
2170.00000,94.87889
2172.00000,65.31027
2174.00000,62.67353
2176.00000,82.54673
2178.00000,69.58482
2180.00000,84.69864
2182.00000,103.96901
2184.00000,86.14158
2186.00000,75.77251
2188.00000,112.30124
2190.00000,120.46008
2192.00000,78.51916
2194.00000,62.83829
2196.00000,72.30502
2198.00000,87.91051
2200.00000,98.38519
2202.00000,100.59287
2204.00000,94.20026
2206.00000,96.56182
2208.00000,93.17944
2210.00000,73.41461
2212.00000,69.44032
2214.00000,76.77457
2216.00000,74.36272
2218.00000,71.74920
2220.00000,98.47134
2222.00000,112.49793
2224.00000,105.27219
2226.00000,109.66496
2228.00000,147.57758
2230.00000,169.40732
2232.00000,136.08253
2234.00000,96.12821
2236.00000,112.87175
2238.00000,142.12648
2240.00000,120.86269
2242.00000,107.24044
2244.00000,137.84506
2246.00000,127.64642
2248.00000,132.02007
2250.00000,154.56728
2252.00000,158.33095
2254.00000,136.61575
2256.00000,132.62801
2258.00000,141.35986
2260.00000,135.21941
2262.00000,115.41910
2264.00000,127.90839
2266.00000,149.75389
2268.00000,136.69197
2270.00000,93.25927
2272.00000,85.23215
2274.00000,103.57941
2276.00000,115.44176
2278.00000,108.28555
2280.00000,103.49440
2282.00000,123.12090
2284.00000,91.13824
2286.00000,32.24140
2288.00000,62.23875
2290.00000,94.05873
2292.00000,95.93315
2294.00000,90.82911
2296.00000,94.12294
2298.00000,80.36349
2300.00000,63.70528
2302.00000,66.40718
2304.00000,83.42053
2306.00000,85.51582
2308.00000,91.20547
2310.00000,109.97888
2312.00000,107.75814
2314.00000,59.03802
2316.00000,64.50761
2318.00000,64.22908
2320.00000,48.55401
2322.00000,88.27419
2324.00000,99.98169
2326.00000,61.23958
2328.00000,39.76114
2330.00000,72.87100
2332.00000,69.16914
2334.00000,46.36847
2336.00000,58.55545
2338.00000,92.17422
2340.00000,76.88560
2342.00000,91.19515
2344.00000,96.27431
2346.00000,69.44808
2348.00000,75.17416
2350.00000,77.52470
2352.00000,90.53474
2354.00000,116.15530
2356.00000,116.54015
2358.00000,81.62747
2360.00000,106.21935
2362.00000,139.17264
2364.00000,113.00159
2366.00000,134.93117
2368.00000,97.85024
2370.00000,72.89972
2372.00000,132.90944
2374.00000,158.80449
2376.00000,138.12427
2378.00000,134.13292
2380.00000,152.60692
2382.00000,143.66518
2384.00000,149.83113
2386.00000,146.30338
2388.00000,135.73984
2390.00000,143.30115
2392.00000,133.95435
2394.00000,130.02275
2396.00000,134.22235
2398.00000,134.26569
2400.00000,140.94844
2402.00000,150.99332
2404.00000,127.83595
2406.00000,114.46445
2408.00000,179.54094
2410.00000,125.03193
2412.00000,100.86621
2414.00000,149.76682
2416.00000,115.17183
2418.00000,113.76541
2420.00000,128.90266
2422.00000,101.56593
2424.00000,54.07876
2426.00000,75.93767
2428.00000,58.67542
2430.00000,38.21500
2432.00000,89.16541
2434.00000,120.85738
2436.00000,55.15208
2438.00000,46.23314
2440.00000,95.86561
2442.00000,31.40829
2444.00000,98.22840
2446.00000,120.93519
2448.00000,53.17342
2450.00000,78.11371
2452.00000,110.85281
2454.00000,100.08543
2456.00000,62.06022
2458.00000,42.31061
2460.00000,64.57610
2462.00000,93.73415
2464.00000,96.30562
2466.00000,84.29386
2468.00000,97.75749
2470.00000,110.90837
2472.00000,115.40049
2474.00000,101.98190
2476.00000,77.37898
2478.00000,118.28938
2480.00000,144.20573
2482.00000,100.86637
2484.00000,62.87235
2486.00000,127.54765
2488.00000,121.09651
2490.00000,94.76024
2492.00000,144.49472
2494.00000,117.50758
2496.00000,116.74840
2498.00000,129.09148
2500.00000,95.64760
2502.00000,60.91746
2504.00000,90.99635
2506.00000,119.02174
2508.00000,103.51507
2510.00000,88.68665
2512.00000,87.19067
2514.00000,101.47930
2516.00000,121.36410
2518.00000,129.27544
2520.00000,126.06981
2522.00000,169.37926
2524.00000,183.68320
2526.00000,119.30045
2528.00000,93.04004
2530.00000,96.39179
2532.00000,104.97581
2534.00000,114.11472
2536.00000,121.60195
2538.00000,103.28632
2540.00000,78.17039
2542.00000,74.43835
2544.00000,82.18358
2546.00000,57.92587
2548.00000,82.38655
2550.00000,108.03041
2552.00000,66.01498
2554.00000,65.55264
2556.00000,70.45754
2558.00000,82.76675
2560.00000,113.27750
2562.00000,114.13529
2564.00000,73.17550
2566.00000,67.94553
2568.00000,95.86759
2570.00000,75.76758
2572.00000,79.12260
2574.00000,101.64739
2576.00000,93.62476
2578.00000,55.25786
2580.00000,69.36834
2582.00000,90.77615
2584.00000,85.88094
2586.00000,82.03471
2588.00000,111.89253
2590.00000,121.68176
2592.00000,132.53384
2594.00000,137.53702
2596.00000,78.68645
2598.00000,81.57932
2600.00000,145.11838
2602.00000,158.92509
2604.00000,93.82664
2606.00000,133.84662
2608.00000,124.83315
2610.00000,76.29228
2612.00000,114.48137
2614.00000,110.86910
2616.00000,97.64563
2618.00000,85.34280
2620.00000,67.16897
2622.00000,90.22241
2624.00000,166.37856
2626.00000,182.05731
2628.00000,122.99619
2630.00000,126.37572
2632.00000,170.95552
2634.00000,186.85962
2636.00000,171.87360
2638.00000,162.58121
2640.00000,132.43967
2642.00000,156.48927
2644.00000,163.23012
2646.00000,99.68342
2648.00000,136.18800
2650.00000,117.89233
2652.00000,66.95770
2654.00000,80.21463
2656.00000,107.30053
2658.00000,115.09037
2660.00000,88.34507
2662.00000,54.35863
2664.00000,67.08778
2666.00000,118.78170
2668.00000,73.15248
2670.00000,4.75578
2672.00000,50.88751
2674.00000,27.35476
2676.00000,20.15077
2678.00000,49.99927
2680.00000,50.53503
2682.00000,31.64972
2684.00000,32.90958
2686.00000,51.07089
2688.00000,57.50860
2690.00000,51.00891
2692.00000,79.64047
2694.00000,60.55445
2696.00000,37.53077
2698.00000,106.40576
2700.00000,43.97812
2702.00000,14.95201
2704.00000,57.73234
2706.00000,54.37758
2708.00000,62.08056
2710.00000,38.45550
2712.00000,57.59816
2714.00000,139.09677
2716.00000,135.14487
2718.00000,186.91785
2720.00000,277.88275
2722.00000,293.26984
2724.00000,237.71373
2726.00000,294.78165
2728.00000,334.70300
2730.00000,328.89847
2732.00000,369.63745
2734.00000,293.54855
2736.00000,244.13956
2738.00000,266.57584
2740.00000,257.54504
2742.00000,198.78522
2744.00000,175.65454
2746.00000,162.76486
2748.00000,92.20473
2750.00000,8.67104
2752.00000,64.22336
2754.00000,80.92721
2756.00000,5.55212
2758.00000,25.55070
2760.00000,28.56897
2762.00000,9.28433
2764.00000,5.75597
2766.00000,17.22585
2768.00000,18.04196
2770.00000,27.53749
2772.00000,86.44625
2774.00000,150.40044
2776.00000,107.93810
2778.00000,146.43158
2780.00000,215.31503
2782.00000,236.12766
2784.00000,299.14996
2786.00000,336.37234
2788.00000,362.74039
2790.00000,396.49554
2792.00000,385.75012
2794.00000,293.40207
2796.00000,319.64713
2798.00000,378.81467
2800.00000,314.95886
2802.00000,384.42529
2804.00000,424.67960
2806.00000,404.27292
2808.00000,477.30640
2810.00000,684.91284
2812.00000,757.83746
2814.00000,880.16766
2816.00000,1100.61865
2818.00000,1152.43262
2820.00000,1361.35168
2822.00000,1630.78223
2824.00000,1780.64307
2826.00000,1872.94519
2828.00000,2078.76538
2830.00000,2200.00952
2832.00000,2240.43994
2834.00000,2374.50977
2836.00000,2548.76196
2838.00000,2585.86279
2840.00000,2577.78003
2842.00000,2599.80176
2844.00000,2518.44556
2846.00000,2496.06567
2848.00000,2386.50146
2850.00000,2180.10327
2852.00000,2108.31323
2854.00000,2012.44299
2856.00000,1805.38928
2858.00000,1653.71765
2860.00000,1630.50024
2862.00000,1377.61584
2864.00000,1260.83972
2866.00000,1306.01758
2868.00000,1204.77368
2870.00000,985.47778
2872.00000,1112.71509
2874.00000,1237.72449
2876.00000,1141.73767
2878.00000,1273.94507
2880.00000,1311.36218
2882.00000,1367.10437
2884.00000,1515.87329
2886.00000,1583.52075
2888.00000,1664.01953
2890.00000,1760.65125
2892.00000,1859.01831
2894.00000,1977.91003
2896.00000,2105.01660
2898.00000,2085.13696
2900.00000,2076.94360
2902.00000,2179.55029
2904.00000,2145.99634
2906.00000,2212.55054
2908.00000,2298.12158
2910.00000,2269.82739
2912.00000,2244.28979
2914.00000,2302.55786
2916.00000,2320.99414
2918.00000,2308.96069
2920.00000,2396.77197
2922.00000,2485.79614
2924.00000,2527.67188
2926.00000,2616.08032
2928.00000,2769.16333
2930.00000,2800.10303
2932.00000,2917.20435
2934.00000,3079.36963
2936.00000,3187.14185
2938.00000,3338.75513
2940.00000,3418.78735
2942.00000,3537.25781
2944.00000,3737.49731
2946.00000,3853.73486
2948.00000,3868.12476
2950.00000,4009.78955
2952.00000,4204.71191
2954.00000,4204.00244
2956.00000,4174.03564
2958.00000,4233.43652
2960.00000,4162.01904
2962.00000,3896.62231
2964.00000,3850.72339
2966.00000,3752.01440
2968.00000,3539.57666
2970.00000,3412.61133
2972.00000,3413.36011
2974.00000,3137.12036
2976.00000,2870.02344
2978.00000,2823.71753
2980.00000,2759.99438
2982.00000,2606.26733
2984.00000,2505.74658
2986.00000,2454.93457
2988.00000,2366.98755
2990.00000,2314.82642
2992.00000,2137.36353
2994.00000,2072.51855
2996.00000,2147.24146
2998.00000,1863.41150
3000.00000,1858.73486
3002.00000,1846.22937
3004.00000,1555.00464
3006.00000,1427.04480
3008.00000,1379.21423
3010.00000,1324.07300
3012.00000,1263.88428
3014.00000,1174.06702
3016.00000,953.77203
3018.00000,934.29834
3020.00000,934.74329
3022.00000,740.59595
3024.00000,856.09412
3026.00000,851.87323
3028.00000,748.66492
3030.00000,724.90765
3032.00000,602.31458
3034.00000,593.04926
3036.00000,527.97473
3038.00000,395.89828
3040.00000,450.59579
3042.00000,405.41440
3044.00000,239.73813
3046.00000,199.79411
3048.00000,337.64450
3050.00000,219.93713
3052.00000,158.03403
3054.00000,242.45226
3056.00000,227.01581
3058.00000,79.06862
3060.00000,250.22856
3062.00000,268.37585
3064.00000,24.60288
3066.00000,279.11951
3068.00000,317.22083
3070.00000,118.60530
3072.00000,143.45937
3074.00000,402.58817
3076.00000,134.24187
3078.00000,199.46823
3080.00000,417.82230
3082.00000,135.56668
3084.00000,366.99432
3086.00000,311.37585
3088.00000,178.90677
3090.00000,455.93283
3092.00000,454.92609
3094.00000,347.51926
3096.00000,394.60608
3098.00000,471.71622
3100.00000,333.14267
3102.00000,398.35773
3104.00000,473.24573
3106.00000,405.50214
3108.00000,374.01215
3110.00000,398.45157
3112.00000,374.47751
3114.00000,193.98502
3116.00000,35.34571
3118.00000,292.77264
3120.00000,310.92776
3122.00000,171.60318
3124.00000,177.25648
3126.00000,76.72424
3128.00000,86.08849
3130.00000,295.38773
3132.00000,353.65292
3134.00000,23.76656
3136.00000,140.18890
3138.00000,164.00072
3140.00000,137.79359
3142.00000,471.94528
3144.00000,187.83427
3146.00000,41.51001
3148.00000,163.82053
3150.00000,144.31702
3152.00000,253.83459
3154.00000,470.40634
3156.00000,354.01276
3158.00000,138.05177
3160.00000,553.59448
3162.00000,396.02298
3164.00000,250.47343
3166.00000,502.02206
3168.00000,442.97296
3170.00000,245.24812
3172.00000,446.87479
3174.00000,539.79224
3176.00000,202.02588
3178.00000,796.91211
3180.00000,738.70251
3182.00000,410.59229
3184.00000,676.35168
3186.00000,395.11276
3188.00000,453.05109
3190.00000,795.47278
3192.00000,726.17682
3194.00000,236.89766
3196.00000,317.37784
3198.00000,454.75885
3200.00000,433.38150
