300.00000,1312.65845
302.00000,1169.19263
304.00000,1025.66077
306.00000,886.89148
308.00000,741.45172
310.00000,611.92078
312.00000,519.35211
314.00000,437.87115
316.00000,395.34213
318.00000,367.09171
320.00000,331.25089
322.00000,304.85001
324.00000,275.05356
326.00000,282.97211
328.00000,281.05646
330.00000,226.64297
332.00000,224.24963
334.00000,179.32947
336.00000,120.57326
338.00000,104.48892
340.00000,92.37721
342.00000,105.99780
344.00000,159.76370
346.00000,228.77924
348.00000,299.12137
350.00000,416.25330
352.00000,536.59521
354.00000,622.44366
356.00000,649.92261
358.00000,611.58228
360.00000,580.94299
362.00000,542.66449
364.00000,465.96527
366.00000,367.09100
368.00000,285.71414
370.00000,240.11470
372.00000,209.49661
374.00000,178.53456
376.00000,160.89571
378.00000,136.39577
380.00000,142.09277
382.00000,133.85886
384.00000,62.04150
386.00000,85.82964
388.00000,88.25335
390.00000,80.18092
392.00000,110.87926
394.00000,74.10520
396.00000,84.66455
398.00000,116.20705
400.00000,105.98122
402.00000,88.22256
404.00000,123.01512
406.00000,159.92307
408.00000,172.97406
410.00000,173.87021
412.00000,156.89450
414.00000,153.40933
416.00000,172.96541
418.00000,200.93121
420.00000,221.63550
422.00000,234.35777
424.00000,232.54356
426.00000,236.14491
428.00000,263.84650
430.00000,287.27045
432.00000,287.03052
434.00000,277.73450
436.00000,272.48694
438.00000,271.01550
440.00000,296.90741
442.00000,310.30435
444.00000,289.87747
446.00000,274.06274
448.00000,310.68195
450.00000,351.91650
452.00000,373.64764
454.00000,377.75272
456.00000,367.79581
458.00000,377.13699
460.00000,393.69611
462.00000,398.09598
464.00000,370.22882
466.00000,289.09164
468.00000,273.61096
470.00000,255.44897
472.00000,193.29559
474.00000,228.22844
476.00000,234.59293
478.00000,189.79849
480.00000,197.06471
482.00000,288.64938
484.00000,291.41446
486.00000,309.48486
488.00000,358.48325
490.00000,362.93890
492.00000,332.22314
494.00000,303.52917
496.00000,288.80942
498.00000,281.61398
500.00000,269.79712
502.00000,243.98636
504.00000,238.40588
506.00000,225.64439
508.00000,181.61458
510.00000,170.07158
512.00000,191.33966
514.00000,215.51135
516.00000,207.73895
518.00000,164.92929
520.00000,146.87152
522.00000,153.11884
524.00000,194.97281
526.00000,261.08771
528.00000,282.60205
530.00000,332.35718
532.00000,391.14221
534.00000,424.40094
536.00000,450.78345
538.00000,434.75476
540.00000,391.50427
542.00000,342.44711
544.00000,293.43042
546.00000,249.22778
548.00000,203.09163
550.00000,164.57953
552.00000,156.19820
554.00000,185.26558
556.00000,209.62634
558.00000,170.38777
560.00000,141.79315
562.00000,191.29291
564.00000,195.96219
566.00000,347.24905
568.00000,390.65570
570.00000,287.62994
572.00000,480.85092
574.00000,478.20303
576.00000,455.90131
578.00000,478.51797
580.00000,347.59338
582.00000,331.55978
584.00000,350.85745
586.00000,350.20422
588.00000,361.76221
590.00000,373.23480
592.00000,351.37589
594.00000,304.35046
596.00000,270.72391
598.00000,279.20444
600.00000,309.04770
602.00000,297.87750
604.00000,249.28683
606.00000,211.41225
608.00000,200.75146
610.00000,203.75127
612.00000,213.36301
614.00000,227.96300
616.00000,244.51151
618.00000,258.90753
620.00000,258.63898
622.00000,241.22498
624.00000,216.64427
626.00000,201.07681
628.00000,214.12207
630.00000,200.81525
632.00000,148.82776
634.00000,127.59149
636.00000,147.59193
638.00000,185.07112
640.00000,190.59224
642.00000,153.92253
644.00000,143.48593
646.00000,155.47426
648.00000,151.45001
650.00000,143.59476
652.00000,166.94566
654.00000,147.01952
656.00000,219.98300
658.00000,357.40698
660.00000,440.26736
662.00000,585.43219
664.00000,704.42902
666.00000,784.65247
668.00000,829.74512
670.00000,779.73590
672.00000,689.83270
674.00000,584.71075
676.00000,481.12848
678.00000,396.86050
680.00000,321.56543
682.00000,257.86566
684.00000,223.43539
686.00000,220.02342
688.00000,217.46072
690.00000,192.95177
692.00000,161.03445
694.00000,141.33446
696.00000,135.21617
698.00000,131.61128
700.00000,122.57352
702.00000,112.54396
704.00000,100.22202
706.00000,80.07362
708.00000,90.89386
710.00000,68.31615
712.00000,48.21166
714.00000,118.15513
716.00000,124.07503
718.00000,138.79945
720.00000,199.10043
722.00000,272.04092
724.00000,369.27261
726.00000,474.21780
728.00000,564.99609
730.00000,635.05072
732.00000,693.66571
734.00000,747.40533
736.00000,792.20880
738.00000,849.34351
740.00000,914.27747
742.00000,924.73401
744.00000,929.65881
746.00000,944.19635
748.00000,958.80688
750.00000,947.38336
752.00000,829.63721
754.00000,730.91321
756.00000,667.78284
758.00000,556.22052
760.00000,444.07492
762.00000,363.53540
764.00000,318.34988
766.00000,288.61316
768.00000,250.22108
770.00000,210.78850
772.00000,189.01019
774.00000,194.88428
776.00000,211.71652
778.00000,198.39047
780.00000,153.63838
782.00000,113.29420
784.00000,107.07023
786.00000,122.74043
788.00000,120.27428
790.00000,100.92230
792.00000,87.26041
794.00000,87.88071
796.00000,87.12615
798.00000,88.87713
800.00000,69.01460
802.00000,43.61906
804.00000,80.32993
806.00000,106.60004
808.00000,117.95444
810.00000,141.29578
812.00000,192.87268
814.00000,305.83847
816.00000,497.63257
818.00000,769.12457
820.00000,1119.31128
822.00000,1544.43433
824.00000,1996.99939
826.00000,2417.96851
828.00000,2712.67310
830.00000,2800.28174
832.00000,2723.88428
834.00000,2508.21973
836.00000,2200.57300
838.00000,1893.59277
840.00000,1681.83374
842.00000,1565.24487
844.00000,1553.20667
846.00000,1581.41736
848.00000,1544.65515
850.00000,1507.15527
852.00000,1473.36267
854.00000,1398.66931
856.00000,1271.78760
858.00000,1154.90869
860.00000,1077.31934
862.00000,1043.40173
864.00000,1020.00708
866.00000,963.77863
868.00000,899.21344
870.00000,815.28259
872.00000,727.20490
874.00000,655.43225
876.00000,565.07227
878.00000,487.91489
880.00000,458.75235
882.00000,456.41400
884.00000,422.83401
886.00000,376.58075
888.00000,397.33228
890.00000,437.90262
892.00000,406.55493
894.00000,387.78622
896.00000,362.41229
898.00000,335.23648
900.00000,328.55814
902.00000,317.18750
904.00000,259.43652
906.00000,236.73952
908.00000,262.55295
910.00000,251.37819
912.00000,202.84961
914.00000,182.20193
916.00000,199.41449
918.00000,219.85527
920.00000,221.94859
922.00000,189.53261
924.00000,159.00311
926.00000,151.76486
928.00000,143.28677
930.00000,117.24509
932.00000,108.11372
934.00000,113.86871
936.00000,113.74886
938.00000,115.31662
940.00000,96.81429
942.00000,84.79755
944.00000,90.60956
946.00000,86.67410
948.00000,79.57705
950.00000,70.19463
952.00000,92.87013
954.00000,148.96127
956.00000,161.16446
958.00000,177.20206
960.00000,215.86691
962.00000,249.58344
964.00000,255.90182
966.00000,248.90329
968.00000,200.30193
970.00000,133.40509
972.00000,98.89264
974.00000,83.51488
976.00000,79.03666
978.00000,72.45799
980.00000,66.68445
982.00000,80.95145
984.00000,101.05843
986.00000,102.51907
988.00000,105.06004
990.00000,127.44759
992.00000,116.14122
994.00000,83.32864
996.00000,77.48898
998.00000,82.19153
1000.00000,42.22112
1002.00000,72.11224
1004.00000,93.04835
1006.00000,88.19627
1008.00000,121.40164
1010.00000,108.42192
1012.00000,119.55887
1014.00000,133.70773
1016.00000,112.38408
1018.00000,115.97181
1020.00000,117.81657
1022.00000,163.79349
1024.00000,229.85896
1026.00000,251.83847
1028.00000,321.89618
1030.00000,383.55838
1032.00000,384.23563
1034.00000,348.88034
1036.00000,327.55576
1038.00000,291.97375
1040.00000,223.31194
1042.00000,154.05876
1044.00000,124.58827
1046.00000,104.60854
1048.00000,105.56490
1050.00000,94.26038
1052.00000,67.66755
1054.00000,111.74093
1056.00000,138.44547
1058.00000,106.98710
1060.00000,66.89579
1062.00000,74.79597
1064.00000,89.50200
1066.00000,67.46684
1068.00000,37.72766
1070.00000,53.89685
1072.00000,101.57268
1074.00000,129.32426
1076.00000,130.96809
1078.00000,135.02078
1080.00000,156.31279
1082.00000,167.13620
1084.00000,166.17780
1086.00000,164.92390
1088.00000,166.62686
1090.00000,164.80353
1092.00000,166.56126
1094.00000,167.42171
1096.00000,166.18430
1098.00000,180.59081
1100.00000,217.69685
1102.00000,195.71437
1104.00000,146.25348
1106.00000,160.66426
1108.00000,169.45911
1110.00000,174.23906
1112.00000,198.59039
1114.00000,239.74663
1116.00000,270.79044
1118.00000,288.92123
1120.00000,299.97049
1122.00000,313.02802
1124.00000,345.03278
1126.00000,397.51633
1128.00000,344.43237
1130.00000,293.25504
1132.00000,351.89676
1134.00000,370.79996
1136.00000,360.84763
1138.00000,355.00671
1140.00000,369.97311
1142.00000,401.68497
1144.00000,423.11215
1146.00000,450.38947
1148.00000,468.67828
1150.00000,463.01065
1152.00000,462.54761
1154.00000,445.72302
1156.00000,431.61731
1158.00000,434.65030
1160.00000,432.17017
1162.00000,412.29944
1164.00000,391.90814
1166.00000,365.84598
1168.00000,322.74362
1170.00000,285.57095
1172.00000,268.97031
1174.00000,230.79961
1176.00000,169.66672
1178.00000,132.51099
1180.00000,84.75335
1182.00000,133.29570
1184.00000,165.82805
1186.00000,56.85821
1188.00000,42.64286
1190.00000,69.94138
1192.00000,77.43474
1194.00000,67.86069
1196.00000,64.13107
1198.00000,93.99985
1200.00000,134.01311
1202.00000,149.07564
1204.00000,152.00330
1206.00000,210.92323
1208.00000,308.84521
1210.00000,416.83469
1212.00000,535.26337
1214.00000,701.62238
1216.00000,962.01569
1218.00000,1190.83252
1220.00000,1332.22998
1222.00000,1411.23547
1224.00000,1335.68127
1226.00000,1135.84631
1228.00000,907.94800
1230.00000,702.66602
1232.00000,499.82211
1234.00000,336.90155
1236.00000,223.35115
1238.00000,157.41251
1240.00000,140.32483
1242.00000,156.80656
1244.00000,187.12195
1246.00000,218.55228
1248.00000,232.72980
1250.00000,210.12202
1252.00000,184.86143
1254.00000,147.84566
1256.00000,117.24115
1258.00000,135.64944
1260.00000,149.18401
1262.00000,93.64961
1264.00000,67.35197
1266.00000,135.17662
1268.00000,151.08723
1270.00000,183.17116
1272.00000,239.90404
1274.00000,313.06989
1276.00000,418.27792
1278.00000,497.52350
1280.00000,589.61292
1282.00000,658.63947
1284.00000,658.17487
1286.00000,672.85138
1288.00000,678.15631
1290.00000,666.42151
1292.00000,645.07385
1294.00000,602.45630
1296.00000,534.29413
1298.00000,489.27231
1300.00000,466.02927
1302.00000,433.15698
1304.00000,413.73825
1306.00000,388.67920
1308.00000,393.06131
1310.00000,404.63391
1312.00000,348.27393
1314.00000,361.33807
1316.00000,375.26663
1318.00000,310.58871
1320.00000,233.59625
1322.00000,251.74231
1324.00000,209.35822
1326.00000,130.21706
1328.00000,94.45258
1330.00000,52.25150
1332.00000,71.64222
1334.00000,62.32600
1336.00000,19.85450
1338.00000,40.89739
1340.00000,59.70471
1342.00000,29.02607
1344.00000,-3.51989
1346.00000,18.37142
1348.00000,57.49847
1350.00000,37.61384
1352.00000,40.91728
1354.00000,86.34442
1356.00000,88.24395
1358.00000,86.18028
1360.00000,105.39673
1362.00000,129.14084
1364.00000,133.25603
1366.00000,125.67987
1368.00000,137.93164
1370.00000,196.67079
1372.00000,217.39973
1374.00000,124.99443
1376.00000,120.24080
1378.00000,133.50441
1380.00000,105.34003
1382.00000,93.91812
1384.00000,148.58757
1386.00000,206.44832
1388.00000,196.13232
1390.00000,148.70630
1392.00000,163.41299
1394.00000,211.77550
1396.00000,178.04082
1398.00000,140.17673
1400.00000,199.77249
1402.00000,193.98904
1404.00000,147.75208
1406.00000,143.09866
1408.00000,180.31703
1410.00000,182.07156
1412.00000,150.32910
1414.00000,125.58540
1416.00000,156.27327
1418.00000,209.23021
1420.00000,161.99652
1422.00000,177.19025
1424.00000,254.93558
1426.00000,286.03589
1428.00000,287.76318
1430.00000,394.03339
1432.00000,495.92807
1434.00000,536.74579
1436.00000,605.79987
1438.00000,723.71216
1440.00000,843.50891
1442.00000,950.88379
1444.00000,1085.03040
1446.00000,1271.02087
1448.00000,1408.67749
1450.00000,1440.19043
1452.00000,1435.57507
1454.00000,1480.06299
1456.00000,1488.65430
1458.00000,1453.63623
1460.00000,1428.77673
1462.00000,1407.07031
1464.00000,1328.69226
1466.00000,1360.02991
1468.00000,1409.61975
1470.00000,1374.54468
1472.00000,1324.94177
1474.00000,1318.28210
1476.00000,1298.61267
1478.00000,1215.17480
1480.00000,1060.75293
1482.00000,870.95795
1484.00000,770.55109
1486.00000,648.76886
1488.00000,462.28897
1490.00000,371.97256
1492.00000,384.38174
1494.00000,297.95059
1496.00000,171.14040
1498.00000,148.78065
1500.00000,84.17550
1502.00000,33.34051
1504.00000,55.12322
1506.00000,105.02925
1508.00000,88.71119
1510.00000,22.30680
1512.00000,11.41935
1514.00000,42.79039
1516.00000,39.58406
1518.00000,44.36272
1520.00000,52.14800
1522.00000,63.45409
1524.00000,69.18430
1526.00000,62.64405
1528.00000,111.97312
1530.00000,100.61688
1532.00000,44.55611
1534.00000,66.47184
1536.00000,87.20265
1538.00000,76.04789
1540.00000,88.79008
1542.00000,120.69939
1544.00000,86.93151
1546.00000,94.10736
1548.00000,103.03751
1550.00000,91.37537
1552.00000,88.98087
1554.00000,47.81199
1556.00000,106.41289
1558.00000,160.34523
1560.00000,109.90525
1562.00000,129.49008
1564.00000,158.91808
1566.00000,132.94473
1568.00000,92.65515
1570.00000,109.23740
1572.00000,127.16772
1574.00000,104.52726
1576.00000,98.77331
1578.00000,153.43306
1580.00000,176.21043
1582.00000,88.55191
1584.00000,80.89386
1586.00000,156.29561
1588.00000,102.56239
1590.00000,74.55399
1592.00000,43.26764
1594.00000,48.91822
1596.00000,112.28281
1598.00000,76.14301
1600.00000,79.60866
1602.00000,79.23817
1604.00000,47.34489
1606.00000,88.17962
1608.00000,119.45410
1610.00000,93.80236
1612.00000,80.89798
1614.00000,127.52639
1616.00000,127.44362
1618.00000,103.00076
1620.00000,86.96430
1622.00000,75.18291
1624.00000,52.48969
1626.00000,40.19370
1628.00000,55.93804
1630.00000,89.20921
1632.00000,112.42959
1634.00000,114.84937
1636.00000,115.74532
1638.00000,88.17438
1640.00000,68.34533
1642.00000,129.85539
1644.00000,95.39475
1646.00000,121.03468
1648.00000,178.09532
1650.00000,112.50840
1652.00000,159.21997
1654.00000,141.76195
1656.00000,60.73746
1658.00000,54.21108
1660.00000,103.94756
1662.00000,118.91616
1664.00000,99.60536
1666.00000,134.26602
1668.00000,222.53624
1670.00000,157.11687
1672.00000,104.73978
1674.00000,132.03366
1676.00000,157.23366
1678.00000,135.69598
1680.00000,31.14815
1682.00000,66.22101
1684.00000,194.31297
1686.00000,141.16939
1688.00000,119.33714
1690.00000,130.57552
1692.00000,84.52850
1694.00000,32.04638
1696.00000,125.29921
1698.00000,117.86960
1700.00000,98.90864
1702.00000,138.76039
1704.00000,105.06638
1706.00000,110.51475
1708.00000,105.44974
1710.00000,90.07430
1712.00000,94.51042
1714.00000,58.92106
1716.00000,104.22066
1718.00000,156.76970
1720.00000,124.44563
1722.00000,85.66208
1724.00000,112.78696
1726.00000,68.48023
1728.00000,67.30856
1730.00000,191.48531
1732.00000,79.78719
1734.00000,130.47502
1736.00000,248.24911
1738.00000,194.05942
1740.00000,144.94768
1742.00000,216.91235
1744.00000,223.88586
1746.00000,132.77255
1748.00000,115.29619
1750.00000,175.83090
1752.00000,137.85677
1754.00000,121.09175
1756.00000,176.81325
1758.00000,109.22327
1760.00000,210.27966
1762.00000,214.68967
1764.00000,63.47301
1766.00000,86.94823
1768.00000,251.89024
1770.00000,215.17961
1772.00000,138.30153
1774.00000,231.62906
1776.00000,215.38948
1778.00000,95.21027
1780.00000,128.14270
1782.00000,226.72000
1784.00000,136.13354
1786.00000,194.17763
1788.00000,237.77606
1790.00000,162.41205
1792.00000,102.07365
1794.00000,146.14769
1796.00000,73.61523
1798.00000,118.43967
1800.00000,240.04501
1802.00000,107.18738
1804.00000,142.87463
1806.00000,199.41063
1808.00000,97.74970
1810.00000,0.34804
1812.00000,153.27089
1814.00000,154.30948
1816.00000,77.87885
1818.00000,119.72749
1820.00000,146.42584
1822.00000,27.93814
1824.00000,45.99483
1826.00000,105.66274
1828.00000,0.90572
1830.00000,55.25647
1832.00000,102.00040
1834.00000,77.40936
1836.00000,48.15027
1838.00000,29.04778
1840.00000,0.98109
1842.00000,61.29034
1844.00000,92.46651
1846.00000,0.42459
1848.00000,97.63492
1850.00000,182.23611
1852.00000,101.51851
1854.00000,34.83937
1856.00000,181.37776
1858.00000,111.72247
1860.00000,107.65007
1862.00000,209.30318
1864.00000,163.56404
1866.00000,254.59982
1868.00000,206.43263
1870.00000,133.88683
1872.00000,205.40205
1874.00000,176.78937
1876.00000,154.43674
1878.00000,229.30795
1880.00000,327.05582
1882.00000,317.21323
1884.00000,239.32506
1886.00000,241.03973
1888.00000,250.74507
1890.00000,268.80841
1892.00000,464.28900
1894.00000,329.53702
1896.00000,302.53085
1898.00000,433.75272
1900.00000,218.47063
1902.00000,232.71080
1904.00000,340.83054
1906.00000,323.87646
1908.00000,326.21851
1910.00000,552.70367
1912.00000,443.88498
1914.00000,343.63083
1916.00000,449.62152
1918.00000,362.93936
1920.00000,370.24887
1922.00000,449.38867
1924.00000,434.83838
1926.00000,367.11816
1928.00000,452.61063
1930.00000,306.87021
1932.00000,168.93530
1934.00000,203.66307
1936.00000,152.87422
1938.00000,328.48651
1940.00000,348.81201
1942.00000,216.95598
1944.00000,220.82658
1946.00000,116.69588
1948.00000,185.55440
1950.00000,222.47577
1952.00000,130.98628
1954.00000,256.18631
1956.00000,258.68146
1958.00000,106.07176
1960.00000,91.89117
1962.00000,244.97174
1964.00000,67.47271
1966.00000,141.63690
1968.00000,325.01196
1970.00000,257.37088
1972.00000,212.29736
1974.00000,206.78870
1976.00000,209.10632
1978.00000,233.14819
1980.00000,270.46222
1982.00000,234.90289
1984.00000,284.64044
1986.00000,260.34818
1988.00000,140.45882
1990.00000,270.12454
1992.00000,189.88017
1994.00000,251.66661
1996.00000,369.51450
1998.00000,80.98194
2000.00000,474.86993
2002.00000,420.87738
2004.00000,211.64282
2006.00000,372.37692
2008.00000,363.47443
2010.00000,320.31171
2012.00000,368.86084
2014.00000,358.90109
2016.00000,285.09155
2018.00000,317.93390
2020.00000,371.94992
2022.00000,332.06546
2024.00000,347.20139
2026.00000,356.34955
2028.00000,328.74304
2030.00000,311.64502
2032.00000,345.99493
2034.00000,364.70795
2036.00000,358.22235
2038.00000,365.25027
2040.00000,396.58115
2042.00000,388.82590
2044.00000,384.48514
2046.00000,402.38940
2048.00000,411.68228
2050.00000,407.13535
2052.00000,423.80902
2054.00000,441.92221
2056.00000,432.25864
2058.00000,415.57446
2060.00000,397.77979
2062.00000,390.75076
2064.00000,388.74994
2066.00000,362.62634
2068.00000,311.02127
2070.00000,325.02792
2072.00000,395.65594
2074.00000,422.98114
2076.00000,413.46219
2078.00000,404.44452
2080.00000,376.23227
2082.00000,341.12424
2084.00000,397.25131
2086.00000,415.42874
2088.00000,386.77893
2090.00000,377.92566
2092.00000,387.01352
2094.00000,393.84518
2096.00000,421.53436
2098.00000,432.80408
2100.00000,372.33234
2102.00000,363.50351
2104.00000,402.46503
2106.00000,401.88809
2108.00000,344.63641
2110.00000,357.06760
2112.00000,394.86121
2114.00000,394.66367
2116.00000,365.51007
2118.00000,374.08438
2120.00000,438.32587
2122.00000,445.34402
2124.00000,387.15753
2126.00000,408.58673
2128.00000,432.42163
2130.00000,438.56274
2132.00000,428.80527
2134.00000,401.46640
2136.00000,404.18570
2138.00000,420.63116
2140.00000,439.70297
2142.00000,463.30545
2144.00000,465.79813
2146.00000,427.45551
2148.00000,384.82468
2150.00000,376.18228
2152.00000,389.49390
2154.00000,419.71265
2156.00000,422.69247
2158.00000,401.82172
2160.00000,417.92090
2162.00000,448.18576
2164.00000,449.51279
2166.00000,437.67966
2168.00000,455.84207
2170.00000,477.89941
2172.00000,492.39191
2174.00000,485.51801
2176.00000,456.01193
2178.00000,440.84692
2180.00000,472.45175
2182.00000,485.77072
2184.00000,471.54996
2186.00000,520.83649
2188.00000,526.89075
2190.00000,501.64932
2192.00000,477.76465
2194.00000,438.77267
2196.00000,422.06940
2198.00000,427.01343
2200.00000,439.10931
2202.00000,459.72781
2204.00000,494.86066
2206.00000,474.17932
2208.00000,438.23654
2210.00000,452.76199
2212.00000,472.80469
2214.00000,500.46475
2216.00000,489.62949
2218.00000,441.97141
2220.00000,436.27472
2222.00000,444.24658
2224.00000,433.01736
2226.00000,434.45966
2228.00000,462.69034
2230.00000,397.60153
2232.00000,402.15381
2234.00000,441.89371
2236.00000,376.11227
2238.00000,346.88495
2240.00000,371.65515
2242.00000,384.06516
2244.00000,374.94876
2246.00000,414.80521
2248.00000,419.89017
2250.00000,385.13864
2252.00000,385.03757
2254.00000,449.19119
2256.00000,450.48962
2258.00000,389.08679
2260.00000,341.11972
2262.00000,354.34662
2264.00000,395.86816
2266.00000,416.14182
2268.00000,409.87668
2270.00000,399.93307
2272.00000,389.35333
2274.00000,368.29770
2276.00000,373.48734
2278.00000,394.53281
2280.00000,359.82550
2282.00000,351.19064
2284.00000,342.90057
2286.00000,338.00632
2288.00000,387.42944
2290.00000,382.27786
2292.00000,334.06369
2294.00000,339.69019
2296.00000,405.14560
2298.00000,359.60516
2300.00000,302.95840
2302.00000,298.51294
2304.00000,313.23294
2306.00000,318.88098
2308.00000,295.69946
2310.00000,282.37488
2312.00000,314.54062
2314.00000,359.84424
2316.00000,346.65930
2318.00000,343.25345
2320.00000,368.54822
2322.00000,351.78870
2324.00000,322.08911
2326.00000,350.19962
2328.00000,392.24298
2330.00000,369.52567
2332.00000,340.99225
2334.00000,356.29837
2336.00000,360.06149
2338.00000,310.73474
2340.00000,284.37689
2342.00000,317.68066
2344.00000,314.47107
2346.00000,273.96909
2348.00000,321.87134
2350.00000,371.56097
2352.00000,314.49911
2354.00000,255.29135
2356.00000,330.69537
2358.00000,335.50226
2360.00000,274.18951
2362.00000,239.65453
2364.00000,258.66620
2366.00000,268.09360
2368.00000,295.23514
2370.00000,308.50922
2372.00000,292.69525
2374.00000,308.78665
2376.00000,326.27481
2378.00000,289.81262
2380.00000,259.94595
2382.00000,325.38898
2384.00000,323.28638
2386.00000,256.25964
2388.00000,233.54552
2390.00000,275.48572
2392.00000,228.32224
2394.00000,173.59270
2396.00000,215.39613
2398.00000,296.84708
2400.00000,247.10773
2402.00000,182.74263
2404.00000,202.35303
2406.00000,263.95142
2408.00000,260.63840
2410.00000,226.28941
2412.00000,209.62939
2414.00000,226.67625
2416.00000,247.98825
2418.00000,220.40947
2420.00000,199.22890
2422.00000,201.84053
2424.00000,194.28918
2426.00000,189.15244
2428.00000,239.33612
2430.00000,272.46246
2432.00000,233.53867
2434.00000,217.31935
2436.00000,232.83107
2438.00000,227.01015
2440.00000,181.88480
2442.00000,161.48837
2444.00000,228.91701
2446.00000,216.04250
2448.00000,150.08826
2450.00000,191.18367
2452.00000,174.68816
2454.00000,162.55870
2456.00000,179.10341
2458.00000,176.57877
2460.00000,172.25659
2462.00000,179.13043
2464.00000,169.71399
2466.00000,159.28793
2468.00000,201.10353
2470.00000,178.58037
2472.00000,147.77786
2474.00000,170.86758
2476.00000,193.03783
2478.00000,178.59236
2480.00000,171.38559
2482.00000,179.06471
2484.00000,176.81880
2486.00000,194.21671
2488.00000,219.10860
2490.00000,242.33299
2492.00000,235.98996
2494.00000,166.11256
2496.00000,168.73270
2498.00000,182.92708
2500.00000,132.84999
2502.00000,111.60278
2504.00000,172.32870
2506.00000,185.79185
2508.00000,132.57857
2510.00000,132.78757
2512.00000,144.85780
2514.00000,142.14731
2516.00000,144.61447
2518.00000,155.25926
2520.00000,128.60667
2522.00000,168.20134
2524.00000,207.86868
2526.00000,170.28659
2528.00000,166.23384
2530.00000,194.85181
2532.00000,159.28171
2534.00000,96.87202
2536.00000,131.79724
2538.00000,83.05188
2540.00000,99.36748
2542.00000,175.44768
2544.00000,133.78690
2546.00000,127.58611
2548.00000,198.40892
2550.00000,207.60147
2552.00000,115.16374
2554.00000,150.96939
2556.00000,194.33681
2558.00000,154.41019
2560.00000,120.05566
2562.00000,209.22594
2564.00000,228.68799
2566.00000,181.92532
2568.00000,159.98859
2570.00000,168.42667
2572.00000,158.62045
2574.00000,167.17047
2576.00000,202.46588
2578.00000,210.58253
2580.00000,167.46611
2582.00000,184.91377
2584.00000,258.02444
2586.00000,278.30820
2588.00000,219.52769
2590.00000,241.93277
2592.00000,272.03000
2594.00000,234.07825
2596.00000,239.29584
2598.00000,279.95871
2600.00000,304.39441
2602.00000,298.57117
2604.00000,276.69861
2606.00000,214.28810
2608.00000,166.18021
2610.00000,199.36421
2612.00000,253.85147
2614.00000,153.62131
2616.00000,133.55518
2618.00000,207.07817
2620.00000,217.06270
2622.00000,172.32774
2624.00000,225.50067
2626.00000,245.40099
2628.00000,166.93877
2630.00000,170.44209
2632.00000,248.20056
2634.00000,227.99298
2636.00000,125.28741
2638.00000,128.05891
2640.00000,220.79913
2642.00000,196.23169
2644.00000,153.78639
2646.00000,225.66496
2648.00000,169.70488
2650.00000,144.84398
2652.00000,200.71992
2654.00000,244.05130
2656.00000,224.49081
2658.00000,188.66066
2660.00000,202.94017
2662.00000,229.55734
2664.00000,192.32188
2666.00000,202.74585
2668.00000,204.61406
2670.00000,193.85971
2672.00000,228.05821
2674.00000,234.47491
2676.00000,180.39311
2678.00000,148.03604
2680.00000,185.71312
2682.00000,186.70285
2684.00000,142.54755
2686.00000,165.19310
2688.00000,228.39479
2690.00000,164.56337
2692.00000,147.03943
2694.00000,184.10681
2696.00000,173.08716
2698.00000,93.48442
2700.00000,85.91188
2702.00000,130.04317
2704.00000,117.80057
2706.00000,63.53728
2708.00000,143.98047
2710.00000,100.94913
2712.00000,46.96252
2714.00000,158.31628
2716.00000,201.28902
2718.00000,143.13719
2720.00000,214.53276
2722.00000,378.65485
2724.00000,342.65488
2726.00000,394.46683
2728.00000,433.03345
2730.00000,359.63678
2732.00000,313.80954
2734.00000,382.43076
2736.00000,299.92145
2738.00000,202.61223
2740.00000,307.96121
2742.00000,283.71182
2744.00000,131.27686
2746.00000,121.41142
2748.00000,220.27098
2750.00000,43.97961
2752.00000,-32.69608
2754.00000,32.72955
2756.00000,81.66563
2758.00000,64.40855
2760.00000,17.80863
2762.00000,-8.79393
2764.00000,6.75391
2766.00000,33.51489
2768.00000,13.33781
2770.00000,37.87690
2772.00000,95.91190
2774.00000,137.38416
2776.00000,204.36105
2778.00000,206.59795
2780.00000,238.95259
2782.00000,302.21207
2784.00000,239.76067
2786.00000,311.78448
2788.00000,391.69849
2790.00000,355.92459
2792.00000,343.29480
2794.00000,447.57196
2796.00000,407.66415
2798.00000,309.36368
2800.00000,400.99442
2802.00000,456.76657
2804.00000,406.08960
2806.00000,438.04745
2808.00000,594.79681
2810.00000,618.28491
2812.00000,737.49274
2814.00000,918.52606
2816.00000,1044.13965
2818.00000,1206.96570
2820.00000,1544.12732
2822.00000,1731.65088
2824.00000,1803.56262
2826.00000,2067.96143
2828.00000,2208.35547
2830.00000,2242.79956
2832.00000,2370.79639
2834.00000,2589.58521
2836.00000,2617.93848
2838.00000,2695.90698
2840.00000,2841.85986
2842.00000,2896.57642
2844.00000,2831.58594
2846.00000,2708.71948
2848.00000,2590.35034
2850.00000,2483.94922
2852.00000,2357.77295
2854.00000,2218.20190
2856.00000,2072.87354
2858.00000,1883.97693
2860.00000,1656.05823
2862.00000,1534.36548
2864.00000,1487.02539
2866.00000,1319.32581
2868.00000,1110.94885
2870.00000,1261.08350
2872.00000,1193.29407
2874.00000,1051.65479
2876.00000,1131.82312
2878.00000,1199.17920
2880.00000,1272.33960
2882.00000,1415.23816
2884.00000,1564.14014
2886.00000,1606.41846
2888.00000,1639.75610
2890.00000,1799.24841
2892.00000,1896.23059
2894.00000,1854.61951
2896.00000,2135.76025
2898.00000,2153.57471
2900.00000,2109.97974
2902.00000,2313.19995
2904.00000,2246.08374
2906.00000,2289.44775
2908.00000,2320.77173
2910.00000,2216.39575
2912.00000,2262.54370
2914.00000,2389.65894
2916.00000,2405.70557
2918.00000,2417.89087
2920.00000,2580.43164
2922.00000,2531.50049
2924.00000,2548.66382
2926.00000,2683.77905
2928.00000,2783.89526
2930.00000,2972.98657
2932.00000,3087.81592
2934.00000,3200.86646
2936.00000,3374.22754
2938.00000,3431.45923
2940.00000,3498.21851
2942.00000,3695.26733
2944.00000,3950.00952
2946.00000,4113.47168
2948.00000,4287.81689
2950.00000,4442.96924
2952.00000,4506.18994
2954.00000,4536.27148
2956.00000,4705.89453
2958.00000,4711.07129
2960.00000,4612.25684
2962.00000,4607.70068
2964.00000,4494.23877
2966.00000,4267.70410
2968.00000,4057.82031
2970.00000,3954.72437
2972.00000,3906.65991
2974.00000,3786.77734
2976.00000,3588.74951
2978.00000,3418.75122
2980.00000,3309.02002
2982.00000,3083.52686
2984.00000,3111.18018
2986.00000,3038.50513
2988.00000,2561.88062
2990.00000,2709.50244
2992.00000,2697.47607
2994.00000,2482.47681
2996.00000,2464.87012
2998.00000,2356.46851
3000.00000,2289.76245
3002.00000,2085.22900
3004.00000,1838.91101
3006.00000,1941.51099
3008.00000,1841.83228
3010.00000,1690.68530
3012.00000,1647.95020
3014.00000,1523.95178
3016.00000,1324.96912
3018.00000,1424.29041
3020.00000,1452.03479
3022.00000,1153.06787
3024.00000,1349.26599
3026.00000,1141.28845
3028.00000,838.64697
3030.00000,966.50519
3032.00000,930.65027
3034.00000,931.01343
3036.00000,916.60052
3038.00000,882.12921
3040.00000,922.14728
3042.00000,644.38397
3044.00000,532.36658
3046.00000,572.91541
3048.00000,399.43091
3050.00000,513.58807
3052.00000,439.88107
3054.00000,344.78088
3056.00000,501.49188
3058.00000,329.39294
3060.00000,292.51059
3062.00000,402.01532
3064.00000,371.17984
3066.00000,238.75882
3068.00000,279.59906
3070.00000,186.28653
3072.00000,-6.16984
3074.00000,157.62941
3076.00000,387.73911
3078.00000,298.11707
3080.00000,157.10126
3082.00000,309.78201
3084.00000,263.45239
3086.00000,143.86798
3088.00000,251.37862
3090.00000,395.49377
3092.00000,65.58210
3094.00000,91.46523
3096.00000,251.47147
3098.00000,95.46737
3100.00000,-29.22334
3102.00000,296.22092
3104.00000,382.88562
3106.00000,82.14811
3108.00000,18.65030
3110.00000,97.37597
3112.00000,67.17590
3114.00000,-3.90778
3116.00000,57.94012
3118.00000,125.37267
3120.00000,137.99786
3122.00000,217.08440
3124.00000,264.24966
3126.00000,46.38429
3128.00000,306.68607
3130.00000,406.81870
3132.00000,206.41216
3134.00000,474.94901
3136.00000,325.98666
3138.00000,68.12478
3140.00000,222.79196
3142.00000,539.40533
3144.00000,290.29874
3146.00000,238.42085
3148.00000,490.45813
3150.00000,528.93292
3152.00000,368.84045
3154.00000,228.02661
3156.00000,323.22552
3158.00000,463.91028
3160.00000,291.55670
3162.00000,419.10367
3164.00000,441.46991
3166.00000,218.76331
3168.00000,253.97185
3170.00000,316.04700
3172.00000,447.88776
3174.00000,514.48999
3176.00000,425.71365
3178.00000,566.69824
3180.00000,452.54068
3182.00000,368.66379
3184.00000,604.28278
3186.00000,554.11395
3188.00000,624.80371
3190.00000,435.80054
3192.00000,123.56977
3194.00000,479.87939
3196.00000,337.31897
3198.00000,481.62787
3200.00000,828.77429
