300.00000,953.27466
302.00000,852.78473
304.00000,761.74408
306.00000,657.18683
308.00000,535.75537
310.00000,423.46979
312.00000,344.67664
314.00000,292.89053
316.00000,263.48892
318.00000,239.96907
320.00000,217.13048
322.00000,210.04228
324.00000,224.28362
326.00000,262.87982
328.00000,302.37119
330.00000,309.09048
332.00000,278.88171
334.00000,229.76431
336.00000,178.00354
338.00000,147.29712
340.00000,157.53258
342.00000,176.53827
344.00000,201.30281
346.00000,253.41132
348.00000,343.26379
350.00000,445.72745
352.00000,538.56689
354.00000,606.15692
356.00000,650.80878
358.00000,675.24573
360.00000,629.28711
362.00000,542.91669
364.00000,450.11218
366.00000,356.70972
368.00000,288.19046
370.00000,250.49513
372.00000,214.25543
374.00000,170.25082
376.00000,151.56755
378.00000,136.83913
380.00000,137.70840
382.00000,144.09805
384.00000,128.15482
386.00000,118.58817
388.00000,89.02975
390.00000,64.18295
392.00000,75.07354
394.00000,84.89218
396.00000,91.90576
398.00000,78.63815
400.00000,61.52973
402.00000,72.31680
404.00000,63.50677
406.00000,66.37059
408.00000,83.31578
410.00000,88.98312
412.00000,93.87620
414.00000,96.95007
416.00000,101.05702
418.00000,112.07011
420.00000,130.36195
422.00000,143.51437
424.00000,123.73256
426.00000,91.44405
428.00000,78.61062
430.00000,71.03595
432.00000,109.18165
434.00000,123.35207
436.00000,92.06375
438.00000,99.52180
440.00000,92.17503
442.00000,103.21666
444.00000,134.12848
446.00000,142.38258
448.00000,140.57915
450.00000,139.24147
452.00000,150.14989
454.00000,174.82608
456.00000,201.99608
458.00000,228.69919
460.00000,217.77229
462.00000,183.31018
464.00000,170.29820
466.00000,162.11873
468.00000,182.60806
470.00000,190.47131
472.00000,150.54143
474.00000,106.51878
476.00000,71.51064
478.00000,71.99301
480.00000,89.35018
482.00000,76.93167
484.00000,56.25238
486.00000,67.28213
488.00000,76.23784
490.00000,62.90664
492.00000,83.32142
494.00000,91.54588
496.00000,88.46706
498.00000,84.06725
500.00000,73.22053
502.00000,77.12782
504.00000,64.54671
506.00000,46.86121
508.00000,51.60784
510.00000,55.12041
512.00000,47.19209
514.00000,41.68551
516.00000,43.31416
518.00000,49.91355
520.00000,90.64167
522.00000,137.69316
524.00000,175.92973
526.00000,218.45407
528.00000,270.98801
530.00000,326.28976
532.00000,387.94623
534.00000,422.56192
536.00000,391.56982
538.00000,375.59915
540.00000,348.81439
542.00000,298.35468
544.00000,246.34509
546.00000,185.27110
548.00000,157.52875
550.00000,155.16920
552.00000,154.48500
554.00000,156.38333
556.00000,141.97098
558.00000,128.44460
560.00000,150.37691
562.00000,211.58435
564.00000,262.78156
566.00000,290.83179
568.00000,319.11975
570.00000,372.32053
572.00000,427.32965
574.00000,399.50522
576.00000,372.27640
578.00000,380.95050
580.00000,369.30771
582.00000,358.54053
584.00000,327.31561
586.00000,285.70932
588.00000,249.77112
590.00000,208.88258
592.00000,197.73024
594.00000,190.72490
596.00000,169.06276
598.00000,148.83913
600.00000,128.36255
602.00000,127.76882
604.00000,131.20718
606.00000,121.87402
608.00000,123.14779
610.00000,119.28999
612.00000,114.80767
614.00000,109.06435
616.00000,94.89660
618.00000,97.96386
620.00000,91.64483
622.00000,78.77348
624.00000,75.42487
626.00000,62.14137
628.00000,59.39663
630.00000,65.56940
632.00000,79.87763
634.00000,104.20811
636.00000,97.15409
638.00000,83.30093
640.00000,85.28398
642.00000,98.39996
644.00000,111.27524
646.00000,96.25106
648.00000,85.32349
650.00000,110.70631
652.00000,156.33820
654.00000,212.45947
656.00000,293.41251
658.00000,395.98126
660.00000,505.20215
662.00000,624.53229
664.00000,729.30365
666.00000,788.22168
668.00000,777.72095
670.00000,700.69122
672.00000,607.87439
674.00000,511.53683
676.00000,404.96005
678.00000,301.08249
680.00000,240.95210
682.00000,228.42259
684.00000,215.59593
686.00000,179.86288
688.00000,158.61415
690.00000,141.74837
692.00000,125.54267
694.00000,119.75922
696.00000,119.58945
698.00000,91.26183
700.00000,71.75639
702.00000,75.62632
704.00000,77.37447
706.00000,61.63160
708.00000,68.81206
710.00000,84.60252
712.00000,111.99928
714.00000,166.04564
716.00000,180.12535
718.00000,209.55135
720.00000,278.89700
722.00000,358.62402
724.00000,431.43253
726.00000,487.20609
728.00000,571.00555
730.00000,678.54449
732.00000,746.97205
734.00000,793.92041
736.00000,825.07672
738.00000,836.77454
740.00000,863.33746
742.00000,958.88031
744.00000,1006.87689
746.00000,984.10156
748.00000,933.56250
750.00000,883.73932
752.00000,856.12421
754.00000,764.81128
756.00000,637.88538
758.00000,547.23492
760.00000,424.74445
762.00000,346.94531
764.00000,306.19440
766.00000,245.90970
768.00000,171.88737
770.00000,139.41620
772.00000,138.86658
774.00000,132.39346
776.00000,104.50243
778.00000,79.32962
780.00000,88.43999
782.00000,94.80579
784.00000,80.53217
786.00000,84.85815
788.00000,58.48515
790.00000,65.52058
792.00000,88.77092
794.00000,57.06268
796.00000,59.64236
798.00000,61.32924
800.00000,62.81593
802.00000,72.37228
804.00000,54.69102
806.00000,73.87428
808.00000,135.52158
810.00000,208.18423
812.00000,283.26889
814.00000,392.59021
816.00000,553.46790
818.00000,793.85614
820.00000,1129.25354
822.00000,1533.03442
824.00000,1970.08838
826.00000,2378.70605
828.00000,2683.65234
830.00000,2808.08179
832.00000,2692.27051
834.00000,2402.23560
836.00000,2078.53833
838.00000,1831.16357
840.00000,1663.29590
842.00000,1525.80444
844.00000,1463.19458
846.00000,1469.63635
848.00000,1453.39001
850.00000,1431.37305
852.00000,1380.14453
854.00000,1291.54504
856.00000,1188.20325
858.00000,1087.65039
860.00000,1001.19012
862.00000,917.56610
864.00000,842.56628
866.00000,796.57733
868.00000,739.91467
870.00000,659.83771
872.00000,566.34253
874.00000,473.91629
876.00000,398.53595
878.00000,370.27734
880.00000,358.09586
882.00000,334.85196
884.00000,325.87186
886.00000,325.80319
888.00000,312.28366
890.00000,292.55991
892.00000,288.79578
894.00000,288.36713
896.00000,286.69943
898.00000,258.91974
900.00000,207.10175
902.00000,183.18500
904.00000,192.54820
906.00000,190.69925
908.00000,161.28244
910.00000,133.80267
912.00000,128.55482
914.00000,143.70134
916.00000,149.47981
918.00000,126.37350
920.00000,98.16280
922.00000,96.71957
924.00000,102.67844
926.00000,89.28000
928.00000,65.00117
930.00000,59.85159
932.00000,48.71474
934.00000,70.75346
936.00000,109.67508
938.00000,43.11484
940.00000,54.25357
942.00000,70.39140
944.00000,32.20391
946.00000,36.34284
948.00000,24.88824
950.00000,56.74671
952.00000,124.55514
954.00000,163.09076
956.00000,183.79869
958.00000,213.17447
960.00000,271.94003
962.00000,323.21216
964.00000,303.37927
966.00000,252.34427
968.00000,214.39143
970.00000,188.69868
972.00000,155.24995
974.00000,123.39373
976.00000,106.07673
978.00000,114.69086
980.00000,138.29288
982.00000,144.37357
984.00000,125.14883
986.00000,118.12333
988.00000,122.15398
990.00000,105.01705
992.00000,78.46576
994.00000,61.30427
996.00000,60.03791
998.00000,60.88115
1000.00000,51.81681
1002.00000,69.88206
1004.00000,103.56552
1006.00000,111.87428
1008.00000,90.24879
1010.00000,96.77921
1012.00000,101.57790
1014.00000,99.57673
1016.00000,109.81831
1018.00000,124.12016
1020.00000,125.82809
1022.00000,153.74205
1024.00000,225.03659
1026.00000,296.67624
1028.00000,322.08347
1030.00000,327.01474
1032.00000,355.30585
1034.00000,371.21121
1036.00000,282.31418
1038.00000,202.51572
1040.00000,190.31461
1042.00000,194.52582
1044.00000,154.55640
1046.00000,126.01223
1048.00000,125.34344
1050.00000,123.18501
1052.00000,102.76259
1054.00000,93.55137
1056.00000,93.05244
1058.00000,81.36674
1060.00000,58.93148
1062.00000,45.02471
1064.00000,33.41798
1066.00000,33.12836
1068.00000,48.11905
1070.00000,62.87331
1072.00000,57.04715
1074.00000,52.69502
1076.00000,68.77794
1078.00000,81.85380
1080.00000,60.52953
1082.00000,58.17645
1084.00000,62.81823
1086.00000,69.16040
1088.00000,84.00726
1090.00000,80.19764
1092.00000,85.32732
1094.00000,105.01610
1096.00000,116.54821
1098.00000,101.20477
1100.00000,71.84026
1102.00000,85.19418
1104.00000,116.80829
1106.00000,97.85522
1108.00000,69.40128
1110.00000,102.06975
1112.00000,135.03421
1114.00000,122.50198
1116.00000,138.44458
1118.00000,149.84373
1120.00000,151.93976
1122.00000,163.19562
1124.00000,189.47368
1126.00000,211.44588
1128.00000,200.92696
1130.00000,175.36513
1132.00000,161.34180
1134.00000,157.34631
1136.00000,188.21385
1138.00000,201.36327
1140.00000,190.35945
1142.00000,209.40979
1144.00000,231.39345
1146.00000,242.23264
1148.00000,247.24596
1150.00000,248.65372
1152.00000,245.41496
1154.00000,276.88101
1156.00000,266.98578
1158.00000,238.64629
1160.00000,289.93948
1162.00000,266.15283
1164.00000,236.52092
1166.00000,215.10916
1168.00000,171.70038
1170.00000,179.98216
1172.00000,159.51500
1174.00000,104.27198
1176.00000,69.60294
1178.00000,81.81631
1180.00000,106.92218
1182.00000,78.81579
1184.00000,37.75823
1186.00000,54.27361
1188.00000,72.58808
1190.00000,59.02383
1192.00000,57.13986
1194.00000,76.90648
1196.00000,63.11446
1198.00000,51.99610
1200.00000,65.93443
1202.00000,113.02050
1204.00000,175.54828
1206.00000,205.43155
1208.00000,243.27533
1210.00000,348.31918
1212.00000,523.94177
1214.00000,716.98627
1216.00000,917.20776
1218.00000,1142.40527
1220.00000,1305.41589
1222.00000,1305.97620
1224.00000,1230.52710
1226.00000,1067.69531
1228.00000,837.47583
1230.00000,599.21008
1232.00000,394.73297
1234.00000,254.98351
1236.00000,182.61258
1238.00000,151.88957
1240.00000,130.99232
1242.00000,114.80727
1244.00000,120.54366
1246.00000,153.35780
1248.00000,177.73679
1250.00000,147.66458
1252.00000,123.26822
1254.00000,123.30734
1256.00000,126.18901
1258.00000,112.69845
1260.00000,84.94818
1262.00000,54.69499
1264.00000,51.96540
1266.00000,80.49973
1268.00000,105.50249
1270.00000,178.54242
1272.00000,227.97014
1274.00000,240.23627
1276.00000,323.94131
1278.00000,456.27930
1280.00000,511.22272
1282.00000,520.91473
1284.00000,574.08502
1286.00000,593.62506
1288.00000,580.90466
1290.00000,543.86090
1292.00000,517.95898
1294.00000,540.64612
1296.00000,528.08850
1298.00000,453.48721
1300.00000,399.85803
1302.00000,409.31570
1304.00000,363.19885
1306.00000,341.74924
1308.00000,338.65900
1310.00000,327.35172
1312.00000,341.39359
1314.00000,313.28085
1316.00000,298.86746
1318.00000,309.49811
1320.00000,284.42725
1322.00000,232.92651
1324.00000,185.24342
1326.00000,151.69005
1328.00000,129.85744
1330.00000,115.02238
1332.00000,86.28654
1334.00000,68.62913
1336.00000,57.14322
1338.00000,31.76606
1340.00000,44.28867
1342.00000,79.19050
1344.00000,81.23028
1346.00000,48.85758
1348.00000,43.93564
1350.00000,24.46179
1352.00000,26.26646
1354.00000,53.77698
1356.00000,67.28123
1358.00000,110.66027
1360.00000,108.51831
1362.00000,71.92342
1364.00000,78.72993
1366.00000,118.84807
1368.00000,95.35051
1370.00000,102.30717
1372.00000,157.89230
1374.00000,131.32021
1376.00000,71.88555
1378.00000,70.86694
1380.00000,107.35266
1382.00000,102.32217
1384.00000,57.09488
1386.00000,33.15268
1388.00000,82.51545
1390.00000,141.92470
1392.00000,107.70134
1394.00000,86.38631
1396.00000,107.66475
1398.00000,103.02318
1400.00000,54.16225
1402.00000,68.46754
1404.00000,56.49413
1406.00000,44.02839
1408.00000,65.64667
1410.00000,62.69299
1412.00000,67.89187
1414.00000,67.47865
1416.00000,58.11687
1418.00000,67.27435
1420.00000,99.88985
1422.00000,107.81986
1424.00000,113.29236
1426.00000,158.00029
1428.00000,218.66812
1430.00000,246.52353
1432.00000,317.25443
1434.00000,417.35864
1436.00000,485.37820
1438.00000,626.70844
1440.00000,765.86713
1442.00000,899.47845
1444.00000,1047.15625
1446.00000,1144.57324
1448.00000,1208.70654
1450.00000,1298.84290
1452.00000,1352.61633
1454.00000,1295.17395
1456.00000,1298.01904
1458.00000,1339.38623
1460.00000,1320.18604
1462.00000,1244.70129
1464.00000,1234.37170
1466.00000,1254.00598
1468.00000,1231.69312
1470.00000,1216.30554
1472.00000,1275.63269
1474.00000,1244.28113
1476.00000,1174.16443
1478.00000,1112.10254
1480.00000,1021.77301
1482.00000,869.38312
1484.00000,675.68158
1486.00000,556.00989
1488.00000,494.36969
1490.00000,365.73505
1492.00000,282.16226
1494.00000,245.73224
1496.00000,205.24275
1498.00000,150.30519
1500.00000,119.56250
1502.00000,91.97552
1504.00000,54.10906
1506.00000,16.09176
1508.00000,11.19439
1510.00000,77.37691
1512.00000,73.19553
1514.00000,7.19763
1516.00000,16.45465
1518.00000,74.14185
1520.00000,62.29483
1522.00000,40.28551
1524.00000,68.60310
1526.00000,71.29546
1528.00000,63.83810
1530.00000,71.84126
1532.00000,85.82413
1534.00000,83.76147
1536.00000,77.57025
1538.00000,75.50777
1540.00000,55.93298
1542.00000,38.09424
1544.00000,78.35130
1546.00000,96.41333
1548.00000,102.76770
1550.00000,112.88213
1552.00000,110.44441
1554.00000,116.78168
1556.00000,114.86195
1558.00000,91.89872
1560.00000,92.19519
1562.00000,150.91949
1564.00000,94.97434
1566.00000,108.74007
1568.00000,220.44183
1570.00000,201.48901
1572.00000,139.68288
1574.00000,167.83772
1576.00000,203.12245
1578.00000,155.19653
1580.00000,153.62729
1582.00000,198.61871
1584.00000,210.01123
1586.00000,201.58391
1588.00000,240.36557
1590.00000,220.36157
1592.00000,197.14987
1594.00000,171.74002
1596.00000,135.82436
1598.00000,175.27904
1600.00000,142.34729
1602.00000,125.51371
1604.00000,156.83809
1606.00000,104.70929
1608.00000,113.66997
1610.00000,152.93507
1612.00000,110.89093
1614.00000,28.20462
1616.00000,109.49062
1618.00000,160.20673
1620.00000,104.56665
1622.00000,76.09749
1624.00000,160.19293
1626.00000,125.48472
1628.00000,110.56026
1630.00000,148.03685
1632.00000,114.52449
1634.00000,88.61679
1636.00000,72.02814
1638.00000,68.77438
1640.00000,72.13670
1642.00000,60.45031
1644.00000,82.00331
1646.00000,59.11868
1648.00000,2.97335
1650.00000,12.57638
1652.00000,53.56162
1654.00000,80.54440
1656.00000,86.81087
1658.00000,105.27874
1660.00000,143.13150
1662.00000,88.40751
1664.00000,68.88312
1666.00000,115.07667
1668.00000,107.57679
1670.00000,108.36159
1672.00000,114.04169
1674.00000,138.96275
1676.00000,174.91013
1678.00000,158.35503
1680.00000,146.14522
1682.00000,139.30690
1684.00000,153.01828
1686.00000,205.11566
1688.00000,197.13789
1690.00000,200.88274
1692.00000,214.63651
1694.00000,204.81712
1696.00000,230.59537
1698.00000,212.46837
1700.00000,194.49602
1702.00000,196.63254
1704.00000,177.03992
1706.00000,233.09596
1708.00000,210.76729
1710.00000,179.90468
1712.00000,248.85074
1714.00000,201.54427
1716.00000,206.55412
1718.00000,282.85571
1720.00000,255.01933
1722.00000,97.68029
1724.00000,210.28616
1726.00000,266.84937
1728.00000,189.65036
1730.00000,202.44734
1732.00000,167.10776
1734.00000,154.15498
1736.00000,166.10704
1738.00000,180.47296
1740.00000,199.96999
1742.00000,98.08058
1744.00000,53.34011
1746.00000,110.44647
1748.00000,130.48734
1750.00000,141.71991
1752.00000,161.07899
1754.00000,97.61577
1756.00000,34.66965
1758.00000,175.39609
1760.00000,110.74884
1762.00000,5.99802
1764.00000,44.64050
1766.00000,82.06019
1768.00000,20.41181
1770.00000,64.07803
1772.00000,90.29032
1774.00000,5.10893
1776.00000,66.54881
1778.00000,63.73168
1780.00000,82.37417
1782.00000,148.55591
1784.00000,120.39577
1786.00000,112.62154
1788.00000,163.31850
1790.00000,222.33217
1792.00000,224.41319
1794.00000,178.00882
1796.00000,209.12701
1798.00000,232.68527
1800.00000,202.13806
1802.00000,200.15878
1804.00000,180.93906
1806.00000,216.87646
1808.00000,235.08501
1810.00000,189.02806
1812.00000,264.43890
1814.00000,318.77817
1816.00000,317.41928
1818.00000,318.48010
1820.00000,340.46750
1822.00000,359.88580
1824.00000,322.07721
1826.00000,332.99997
1828.00000,431.24631
1830.00000,373.84409
1832.00000,356.97922
1834.00000,413.52475
1836.00000,382.65222
1838.00000,268.32422
1840.00000,443.84122
1842.00000,359.21835
1844.00000,226.64485
1846.00000,502.42609
1848.00000,328.27194
1850.00000,281.54175
1852.00000,371.06161
1854.00000,277.24066
1856.00000,194.07091
1858.00000,320.28787
1860.00000,219.74113
1862.00000,79.45637
1864.00000,297.43732
1866.00000,131.07239
1868.00000,90.57905
1870.00000,201.72400
1872.00000,156.87921
1874.00000,107.52407
1876.00000,173.62332
1878.00000,169.47672
1880.00000,96.42703
1882.00000,124.81504
1884.00000,91.46717
1886.00000,86.26117
1888.00000,68.16353
1890.00000,9.24503
1892.00000,75.34400
1894.00000,110.70589
1896.00000,16.69254
1898.00000,32.75964
1900.00000,289.59052
1902.00000,171.09521
1904.00000,181.74083
1906.00000,310.80777
1908.00000,221.17166
1910.00000,210.66496
1912.00000,264.50418
1914.00000,238.42917
1916.00000,203.51038
1918.00000,299.00092
1920.00000,223.18991
1922.00000,185.84848
1924.00000,226.12326
1926.00000,255.80341
1928.00000,412.15909
1930.00000,340.45218
1932.00000,257.62585
1934.00000,437.41516
1936.00000,595.75610
1938.00000,348.37772
1940.00000,413.97955
1942.00000,629.48584
1944.00000,413.68060
1946.00000,446.40192
1948.00000,532.80853
1950.00000,437.47458
1952.00000,370.81079
1954.00000,580.72772
1956.00000,466.54520
1958.00000,452.11740
1960.00000,543.86530
1962.00000,398.13632
1964.00000,530.61407
1966.00000,453.74002
1968.00000,373.39905
1970.00000,432.59384
1972.00000,160.43703
1974.00000,320.88531
1976.00000,304.90216
1978.00000,40.21923
1980.00000,191.23997
1982.00000,254.06012
1984.00000,147.11871
1986.00000,142.02617
1988.00000,220.75267
1990.00000,50.72741
1992.00000,173.39236
1994.00000,237.02495
1996.00000,120.38078
1998.00000,188.57692
2000.00000,78.83392
2002.00000,93.58664
2004.00000,228.42740
2006.00000,139.91354
2008.00000,124.51142
2010.00000,154.47931
2012.00000,138.63156
2014.00000,111.33813
2016.00000,125.23070
2018.00000,112.20425
2020.00000,110.30010
2022.00000,143.01617
2024.00000,97.10316
2026.00000,80.91302
2028.00000,66.80777
2030.00000,42.07090
2032.00000,88.60693
2034.00000,81.25491
2036.00000,63.34975
2038.00000,74.75865
2040.00000,67.37971
2042.00000,47.01021
2044.00000,34.31984
2046.00000,35.17096
2048.00000,41.04281
2050.00000,49.33649
2052.00000,76.76859
2054.00000,74.98866
2056.00000,43.04829
2058.00000,71.53747
2060.00000,73.07352
2062.00000,56.01332
2064.00000,70.62922
2066.00000,100.47309
2068.00000,79.22527
2070.00000,53.52568
2072.00000,59.26015
2074.00000,66.04747
2076.00000,49.96566
2078.00000,50.89520
2080.00000,60.53740
2082.00000,47.17349
2084.00000,34.18914
2086.00000,36.28285
2088.00000,43.43557
2090.00000,51.74417
2092.00000,70.88465
2094.00000,71.70277
2096.00000,74.76630
2098.00000,105.05904
2100.00000,138.93684
2102.00000,121.67018
2104.00000,115.13621
2106.00000,117.30579
2108.00000,91.29986
2110.00000,114.70905
2112.00000,133.53096
2114.00000,109.95981
2116.00000,80.58466
2118.00000,101.62502
2120.00000,134.44983
2122.00000,134.93575
2124.00000,114.91949
2126.00000,116.89730
2128.00000,105.42616
2130.00000,87.64445
2132.00000,92.05318
2134.00000,117.30470
2136.00000,119.21751
2138.00000,119.58651
2140.00000,138.12427
2142.00000,155.05037
2144.00000,142.53520
2146.00000,150.21480
2148.00000,139.79997
2150.00000,87.46085
2152.00000,84.65414
2154.00000,129.55621
2156.00000,120.65383
2158.00000,66.98969
2160.00000,88.04105
2162.00000,102.17963
2164.00000,97.94309
2166.00000,105.86213
2168.00000,121.47991
2170.00000,94.87124
2172.00000,73.89845
2174.00000,78.42904
2176.00000,81.52374
2178.00000,73.61900
2180.00000,78.38654
2182.00000,72.97326
2184.00000,67.36449
2186.00000,116.38647
2188.00000,117.56206
2190.00000,64.81947
2192.00000,51.64272
2194.00000,109.57275
2196.00000,67.28993
2198.00000,59.28996
2200.00000,88.67138
2202.00000,39.95301
2204.00000,41.35135
2206.00000,96.38618
2208.00000,117.82381
2210.00000,82.28590
2212.00000,82.79356
2214.00000,76.30946
2216.00000,63.73344
2218.00000,74.24411
2220.00000,96.86795
2222.00000,91.02625
2224.00000,93.19364
2226.00000,117.04719
2228.00000,122.10437
2230.00000,106.04029
2232.00000,116.38520
2234.00000,119.27542
2236.00000,84.91096
2238.00000,106.38267
2240.00000,86.29887
2242.00000,74.60838
2244.00000,120.16918
2246.00000,101.62150
2248.00000,77.94992
2250.00000,77.91711
2252.00000,93.42763
2254.00000,116.49289
2256.00000,125.21164
2258.00000,129.24237
2260.00000,135.35057
2262.00000,136.14996
2264.00000,134.58228
2266.00000,142.28917
2268.00000,142.89024
2270.00000,138.66541
2272.00000,174.64206
2274.00000,165.82875
2276.00000,134.06699
2278.00000,133.53838
2280.00000,133.87648
2282.00000,116.74518
2284.00000,119.25609
2286.00000,131.05595
2288.00000,102.70173
2290.00000,97.27955
2292.00000,140.68974
2294.00000,174.21692
2296.00000,153.66910
2298.00000,152.86455
2300.00000,115.05530
2302.00000,76.11331
2304.00000,99.82384
2306.00000,121.49579
2308.00000,80.23586
2310.00000,59.77061
2312.00000,98.62697
2314.00000,100.43321
2316.00000,82.16576
2318.00000,83.84710
2320.00000,88.80924
2322.00000,68.79514
2324.00000,89.66941
2326.00000,95.67135
2328.00000,57.31519
2330.00000,28.05491
2332.00000,59.28541
2334.00000,67.35563
2336.00000,55.21327
2338.00000,62.97102
2340.00000,62.87450
2342.00000,62.95098
2344.00000,54.32896
2346.00000,38.75262
2348.00000,45.54358
2350.00000,82.12840
2352.00000,80.67951
2354.00000,46.45216
2356.00000,49.77129
2358.00000,71.61668
2360.00000,79.65573
2362.00000,52.25417
2364.00000,24.75031
2366.00000,73.46077
2368.00000,95.53973
2370.00000,67.19777
2372.00000,48.61167
2374.00000,72.16240
2376.00000,88.70112
2378.00000,112.99404
2380.00000,128.88828
2382.00000,84.51925
2384.00000,52.85787
2386.00000,102.05859
2388.00000,157.67833
2390.00000,120.79839
2392.00000,88.79282
2394.00000,127.84608
2396.00000,168.39523
2398.00000,144.86099
2400.00000,132.74185
2402.00000,159.25349
2404.00000,158.07208
2406.00000,132.00320
2408.00000,170.08211
2410.00000,171.80304
2412.00000,155.28748
2414.00000,171.55060
2416.00000,206.25752
2418.00000,214.15146
2420.00000,230.95592
2422.00000,226.83015
2424.00000,176.44986
2426.00000,182.82042
2428.00000,160.52812
2430.00000,111.95424
2432.00000,114.92072
2434.00000,168.36743
2436.00000,165.78319
2438.00000,170.39333
2440.00000,201.17636
2442.00000,159.47153
2444.00000,134.29266
2446.00000,133.40523
2448.00000,116.23701
2450.00000,97.33868
2452.00000,159.24539
2454.00000,150.81276
2456.00000,99.46124
2458.00000,138.69806
2460.00000,196.23383
2462.00000,154.18604
2464.00000,81.73285
2466.00000,65.48322
2468.00000,52.29588
2470.00000,41.48535
2472.00000,49.64491
2474.00000,60.53143
2476.00000,49.91590
2478.00000,65.35159
2480.00000,82.57926
2482.00000,68.13426
2484.00000,33.30242
2486.00000,23.00999
2488.00000,36.19370
2490.00000,58.58402
2492.00000,59.84443
2494.00000,21.24940
2496.00000,66.37428
2498.00000,91.94624
2500.00000,52.83455
2502.00000,92.82368
2504.00000,74.84172
2506.00000,52.49951
2508.00000,59.42675
2510.00000,48.03451
2512.00000,105.55288
2514.00000,119.79025
2516.00000,56.86951
2518.00000,39.05677
2520.00000,140.41103
2522.00000,114.79783
2524.00000,48.24022
2526.00000,117.30307
2528.00000,183.76785
2530.00000,155.68703
2532.00000,148.07904
2534.00000,205.64841
2536.00000,203.72192
2538.00000,169.16353
2540.00000,194.44789
2542.00000,194.39145
2544.00000,83.57105
2546.00000,130.45619
2548.00000,183.52284
2550.00000,168.26225
2552.00000,181.59029
2554.00000,241.38327
2556.00000,245.72018
2558.00000,232.10860
2560.00000,232.67741
2562.00000,180.13106
2564.00000,207.13765
2566.00000,240.60547
2568.00000,230.50548
2570.00000,258.93970
2572.00000,284.13080
2574.00000,253.70906
2576.00000,207.50925
2578.00000,194.25816
2580.00000,149.31747
2582.00000,180.13191
2584.00000,197.56255
2586.00000,117.25892
2588.00000,123.10724
2590.00000,153.74310
2592.00000,135.73189
2594.00000,99.73438
2596.00000,128.44861
2598.00000,174.26501
2600.00000,126.20235
2602.00000,43.17072
2604.00000,76.74385
2606.00000,121.82063
2608.00000,121.11651
2610.00000,105.57362
2612.00000,102.75456
2614.00000,65.65213
2616.00000,47.10503
2618.00000,52.18222
2620.00000,46.69213
2622.00000,34.22822
2624.00000,50.22969
2626.00000,71.37514
2628.00000,67.45509
2630.00000,48.83879
2632.00000,34.84182
2634.00000,46.47012
2636.00000,60.22500
2638.00000,55.09417
2640.00000,90.37642
2642.00000,90.06902
2644.00000,69.31588
2646.00000,104.89915
2648.00000,155.64372
2650.00000,116.10717
2652.00000,97.25977
2654.00000,135.74344
2656.00000,60.30054
2658.00000,63.16573
2660.00000,141.08971
2662.00000,192.05258
2664.00000,185.23793
2666.00000,137.20082
2668.00000,106.61221
2670.00000,99.54575
2672.00000,110.00967
2674.00000,185.74074
2676.00000,132.65688
2678.00000,54.12370
2680.00000,134.69046
2682.00000,208.76770
2684.00000,120.36416
2686.00000,94.71889
2688.00000,182.97710
2690.00000,95.65715
2692.00000,103.65598
2694.00000,190.32460
2696.00000,178.91704
2698.00000,85.16357
2700.00000,193.02126
2702.00000,216.41232
2704.00000,112.50719
2706.00000,109.40204
2708.00000,132.94757
2710.00000,60.99913
2712.00000,21.29229
2714.00000,113.76000
2716.00000,158.72299
2718.00000,138.39946
2720.00000,193.99373
2722.00000,274.45358
2724.00000,197.52759
2726.00000,262.52798
2728.00000,364.31339
2730.00000,330.44498
2732.00000,240.94562
2734.00000,310.44717
2736.00000,346.87396
2738.00000,247.58424
2740.00000,156.02835
2742.00000,199.58830
2744.00000,102.40094
2746.00000,23.66899
2748.00000,107.98597
2750.00000,73.12139
2752.00000,13.84295
2754.00000,2.54637
2756.00000,12.76775
2758.00000,2.07914
2760.00000,0.00924
2762.00000,-3.06521
2764.00000,5.67300
2766.00000,64.03169
2768.00000,146.96536
2770.00000,108.62254
2772.00000,144.60542
2774.00000,333.08167
2776.00000,267.90598
2778.00000,270.96014
2780.00000,385.84225
2782.00000,436.03137
2784.00000,415.24518
2786.00000,504.12930
2788.00000,631.16528
2790.00000,645.91321
2792.00000,574.56396
2794.00000,639.87317
2796.00000,662.55011
2798.00000,606.51794
2800.00000,627.07635
2802.00000,696.70740
2804.00000,692.65222
2806.00000,720.66217
2808.00000,836.56732
2810.00000,852.81494
2812.00000,952.25812
2814.00000,1045.48169
2816.00000,1125.95911
2818.00000,1384.97302
2820.00000,1576.29016
2822.00000,1727.77527
2824.00000,1901.37231
2826.00000,2055.51489
2828.00000,2195.71460
2830.00000,2259.02612
2832.00000,2322.18286
2834.00000,2444.28198
2836.00000,2474.68188
2838.00000,2541.39795
2840.00000,2632.83350
2842.00000,2618.48047
2844.00000,2492.50049
2846.00000,2475.48779
2848.00000,2378.48486
2850.00000,2166.13330
2852.00000,2070.05347
2854.00000,1873.33228
2856.00000,1776.63428
2858.00000,1715.77673
2860.00000,1457.68384
2862.00000,1292.60828
2864.00000,1200.37146
2866.00000,1080.89429
2868.00000,991.24048
2870.00000,1068.70789
2872.00000,1004.28510
2874.00000,909.51880
2876.00000,991.62085
2878.00000,1137.00500
2880.00000,1235.40491
2882.00000,1285.50513
2884.00000,1424.91589
2886.00000,1677.22351
2888.00000,1676.29785
2890.00000,1771.72559
2892.00000,2028.58752
2894.00000,2123.58423
2896.00000,2062.20728
2898.00000,2173.28687
2900.00000,2296.22534
2902.00000,2243.83936
2904.00000,2312.22583
2906.00000,2383.25220
2908.00000,2346.59888
2910.00000,2312.72681
2912.00000,2413.74658
2914.00000,2364.91504
2916.00000,2387.32544
2918.00000,2496.25342
2920.00000,2479.59644
2922.00000,2608.94434
2924.00000,2681.16602
2926.00000,2667.60376
2928.00000,2742.35522
2930.00000,2859.19336
2932.00000,2857.17334
2934.00000,2981.77002
2936.00000,3243.52173
2938.00000,3198.20190
2940.00000,3338.33423
2942.00000,3503.45190
2944.00000,3538.68408
2946.00000,3694.55640
2948.00000,3865.19263
2950.00000,4066.39893
2952.00000,4157.88379
2954.00000,4060.48633
2956.00000,4154.93457
2958.00000,4147.32227
2960.00000,3977.21631
2962.00000,3879.91724
2964.00000,3889.21826
2966.00000,3752.20410
2968.00000,3605.55811
2970.00000,3546.62744
2972.00000,3349.65088
2974.00000,3139.43823
2976.00000,3032.13403
2978.00000,2943.85278
2980.00000,2743.82300
2982.00000,2581.62231
2984.00000,2443.12085
2986.00000,2308.11133
2988.00000,2204.12671
2990.00000,2130.23340
2992.00000,2117.63037
2994.00000,2069.51709
2996.00000,1946.58374
2998.00000,1891.27429
3000.00000,1820.12830
3002.00000,1696.71790
3004.00000,1587.78943
3006.00000,1539.30457
3008.00000,1424.30627
3010.00000,1399.26782
3012.00000,1370.06201
3014.00000,1121.38745
3016.00000,993.62933
3018.00000,873.44006
3020.00000,772.59082
3022.00000,820.15216
3024.00000,860.06598
3026.00000,684.22534
3028.00000,541.20911
3030.00000,568.50140
3032.00000,464.64084
3034.00000,470.13928
3036.00000,535.96002
3038.00000,442.33356
3040.00000,215.15562
3042.00000,263.44247
3044.00000,307.75589
3046.00000,220.82056
3048.00000,185.23872
3050.00000,116.23156
3052.00000,66.25799
3054.00000,185.35152
3056.00000,336.17868
3058.00000,107.43265
3060.00000,68.68339
3062.00000,179.86179
3064.00000,137.20313
3066.00000,47.09002
3068.00000,75.93896
3070.00000,50.34062
3072.00000,11.13741
3074.00000,136.41103
3076.00000,32.37162
3078.00000,71.99575
3080.00000,215.17412
3082.00000,172.00436
3084.00000,293.45117
3086.00000,162.50624
3088.00000,4.84824
3090.00000,122.63680
3092.00000,81.53085
3094.00000,22.74038
3096.00000,-21.45173
3098.00000,74.93463
3100.00000,385.81268
3102.00000,143.66385
3104.00000,41.72361
3106.00000,223.74608
3108.00000,108.86349
3110.00000,300.05801
3112.00000,408.69400
3114.00000,320.51657
3116.00000,311.75330
3118.00000,307.00436
3120.00000,225.59151
3122.00000,351.90356
3124.00000,569.37183
3126.00000,287.58688
3128.00000,344.59552
3130.00000,511.29657
3132.00000,441.38657
3134.00000,426.51947
3136.00000,470.70197
3138.00000,523.16510
3140.00000,536.83093
3142.00000,542.68250
3144.00000,637.81976
3146.00000,484.94815
3148.00000,355.43399
3150.00000,579.72620
3152.00000,679.21851
3154.00000,532.94360
3156.00000,492.51935
3158.00000,624.06262
3160.00000,533.25024
3162.00000,516.43414
3164.00000,643.65289
3166.00000,745.70984
3168.00000,654.77496
3170.00000,424.36447
3172.00000,529.22217
3174.00000,553.02826
3176.00000,176.95001
3178.00000,544.25256
3180.00000,331.94391
3182.00000,22.43797
3184.00000,424.47720
3186.00000,327.67889
3188.00000,150.74957
3190.00000,394.53348
3192.00000,637.64063
3194.00000,240.25974
3196.00000,318.91028
3198.00000,316.36673
3200.00000,25.76303
