300.00000,1272.35327
302.00000,1110.80420
304.00000,913.96393
306.00000,752.52942
308.00000,618.46057
310.00000,490.49106
312.00000,380.82373
314.00000,320.42441
316.00000,297.57776
318.00000,302.58652
320.00000,300.28656
322.00000,276.19348
324.00000,342.89328
326.00000,359.45132
328.00000,312.60571
330.00000,328.14789
332.00000,371.63318
334.00000,335.76822
336.00000,252.45540
338.00000,217.27740
340.00000,245.45917
342.00000,265.70602
344.00000,322.09534
346.00000,465.15704
348.00000,662.66644
350.00000,832.85632
352.00000,980.99237
354.00000,1117.82312
356.00000,1203.22681
358.00000,1182.38489
360.00000,1104.82080
362.00000,982.66486
364.00000,828.88770
366.00000,672.57629
368.00000,522.28711
370.00000,413.91531
372.00000,350.10352
374.00000,318.03143
376.00000,311.56714
378.00000,279.26675
380.00000,237.05559
382.00000,212.48503
384.00000,193.03590
386.00000,152.61674
388.00000,123.97152
390.00000,129.75305
392.00000,138.07382
394.00000,103.56763
396.00000,96.53582
398.00000,91.87261
400.00000,80.78706
402.00000,110.66840
404.00000,145.88559
406.00000,186.88480
408.00000,221.66911
410.00000,223.92218
412.00000,191.87151
414.00000,149.60860
416.00000,128.96303
418.00000,149.80620
420.00000,189.99594
422.00000,174.30347
424.00000,125.92976
426.00000,134.72340
428.00000,205.29016
430.00000,203.85777
432.00000,205.96010
434.00000,226.53906
436.00000,239.90756
438.00000,251.87015
440.00000,241.89198
442.00000,222.70747
444.00000,227.01605
446.00000,249.87190
448.00000,243.36067
450.00000,303.75009
452.00000,376.57788
454.00000,381.51398
456.00000,378.34125
458.00000,421.94745
460.00000,450.17383
462.00000,432.50806
464.00000,410.80460
466.00000,397.92017
468.00000,359.17334
470.00000,315.78217
472.00000,277.77933
474.00000,212.45015
476.00000,206.66660
478.00000,213.70932
480.00000,191.21120
482.00000,173.17973
484.00000,170.17427
486.00000,166.33072
488.00000,177.25092
490.00000,193.07909
492.00000,164.41685
494.00000,174.08820
496.00000,156.63493
498.00000,111.74838
500.00000,128.23767
502.00000,116.96210
504.00000,92.03053
506.00000,82.40527
508.00000,81.55698
510.00000,78.36314
512.00000,97.67518
514.00000,78.74933
516.00000,35.18005
518.00000,66.79906
520.00000,120.26799
522.00000,146.86966
524.00000,204.61670
526.00000,316.63553
528.00000,363.78369
530.00000,433.64954
532.00000,453.05615
534.00000,424.63290
536.00000,474.69125
538.00000,421.33646
540.00000,332.27386
542.00000,282.81647
544.00000,255.85941
546.00000,243.37010
548.00000,191.88730
550.00000,152.67522
552.00000,158.89334
554.00000,160.69418
556.00000,195.38417
558.00000,155.44093
560.00000,155.02710
562.00000,324.17200
564.00000,376.22281
566.00000,455.07968
568.00000,533.13196
570.00000,546.07483
572.00000,598.16772
574.00000,580.16461
576.00000,543.80304
578.00000,522.05444
580.00000,476.94180
582.00000,453.50336
584.00000,438.27963
586.00000,417.17255
588.00000,387.14212
590.00000,350.12387
592.00000,340.89401
594.00000,343.94818
596.00000,332.11234
598.00000,309.87460
600.00000,303.93945
602.00000,297.45529
604.00000,275.60492
606.00000,251.10345
608.00000,243.09825
610.00000,222.01091
612.00000,208.68379
614.00000,218.21414
616.00000,228.96770
618.00000,234.92305
620.00000,222.97826
622.00000,212.15816
624.00000,202.45403
626.00000,147.08202
628.00000,120.39674
630.00000,121.02547
632.00000,130.71400
634.00000,152.27870
636.00000,126.04106
638.00000,114.77960
640.00000,122.98268
642.00000,119.86797
644.00000,148.48431
646.00000,127.65187
648.00000,123.61353
650.00000,162.47136
652.00000,155.40416
654.00000,209.83745
656.00000,301.95514
658.00000,369.65182
660.00000,441.34732
662.00000,607.68744
664.00000,733.12897
666.00000,779.07996
668.00000,781.29913
670.00000,734.17792
672.00000,643.03912
674.00000,543.02362
676.00000,471.81534
678.00000,433.71249
680.00000,385.40274
682.00000,297.60767
684.00000,239.80725
686.00000,242.39490
688.00000,219.27246
690.00000,187.27299
692.00000,180.66013
694.00000,187.12442
696.00000,164.96547
698.00000,120.39928
700.00000,122.52964
702.00000,106.49654
704.00000,52.77314
706.00000,89.80522
708.00000,61.09204
710.00000,78.91922
712.00000,149.51878
714.00000,132.02892
716.00000,209.86890
718.00000,322.30991
720.00000,429.85547
722.00000,572.88806
724.00000,754.81482
726.00000,950.90985
728.00000,1099.59827
730.00000,1214.28503
732.00000,1367.64209
734.00000,1514.54211
736.00000,1614.63794
738.00000,1658.66003
740.00000,1697.46753
742.00000,1805.36194
744.00000,1869.59167
746.00000,1865.98511
748.00000,1827.36670
750.00000,1756.60742
752.00000,1654.69812
754.00000,1514.35095
756.00000,1315.35132
758.00000,1068.62927
760.00000,854.81982
762.00000,729.85614
764.00000,640.30377
766.00000,533.81616
768.00000,437.62668
770.00000,365.78506
772.00000,323.55524
774.00000,298.73639
776.00000,271.74664
778.00000,244.01700
780.00000,246.51746
782.00000,248.90041
784.00000,226.35442
786.00000,212.85820
788.00000,201.42465
790.00000,187.45425
792.00000,194.87991
794.00000,214.89323
796.00000,159.72824
798.00000,123.67615
800.00000,116.87008
802.00000,111.56668
804.00000,138.97827
806.00000,118.38896
808.00000,90.89712
810.00000,120.58846
812.00000,203.31956
814.00000,314.48849
816.00000,492.25644
818.00000,723.99866
820.00000,1007.99719
822.00000,1414.49414
824.00000,1890.92273
826.00000,2317.21338
828.00000,2620.48877
830.00000,2777.82080
832.00000,2722.13281
834.00000,2487.02124
836.00000,2159.14868
838.00000,1840.51782
840.00000,1616.20227
842.00000,1473.17261
844.00000,1369.89343
846.00000,1303.66675
848.00000,1280.12537
850.00000,1217.03174
852.00000,1140.28674
854.00000,1078.57544
856.00000,1038.58130
858.00000,1035.87231
860.00000,1008.22717
862.00000,1009.10950
864.00000,1055.83545
866.00000,1053.57483
868.00000,1015.41315
870.00000,955.05719
872.00000,826.91278
874.00000,641.29462
876.00000,545.48004
878.00000,443.44736
880.00000,340.51242
882.00000,294.19037
884.00000,282.14001
886.00000,290.54547
888.00000,300.42206
890.00000,296.50281
892.00000,286.95697
894.00000,301.89713
896.00000,318.81305
898.00000,329.85745
900.00000,335.99454
902.00000,325.71863
904.00000,306.21323
906.00000,276.99155
908.00000,254.47948
910.00000,244.38013
912.00000,198.84810
914.00000,168.99533
916.00000,170.01262
918.00000,179.89050
920.00000,192.54024
922.00000,182.74226
924.00000,159.68123
926.00000,143.51817
928.00000,140.97281
930.00000,146.05740
932.00000,130.71404
934.00000,116.25173
936.00000,127.76618
938.00000,131.82678
940.00000,121.18224
942.00000,101.67346
944.00000,83.34742
946.00000,73.48680
948.00000,69.98741
950.00000,76.41203
952.00000,99.04782
954.00000,101.45712
956.00000,34.34899
958.00000,67.45081
960.00000,162.28806
962.00000,218.38603
964.00000,235.17709
966.00000,189.51556
968.00000,164.00519
970.00000,173.33176
972.00000,164.41064
974.00000,140.44009
976.00000,100.07484
978.00000,84.89028
980.00000,115.00207
982.00000,145.29536
984.00000,141.12758
986.00000,132.84082
988.00000,131.33363
990.00000,121.13828
992.00000,115.85580
994.00000,108.04993
996.00000,92.43358
998.00000,73.87831
1000.00000,68.43532
1002.00000,97.76994
1004.00000,95.38929
1006.00000,66.53192
1008.00000,70.20947
1010.00000,62.66195
1012.00000,91.02827
1014.00000,102.98231
1016.00000,80.15160
1018.00000,118.70015
1020.00000,102.97889
1022.00000,172.68243
1024.00000,302.00772
1026.00000,307.92148
1028.00000,359.36139
1030.00000,401.68295
1032.00000,418.79507
1034.00000,430.74005
1036.00000,388.92484
1038.00000,350.79959
1040.00000,317.21741
1042.00000,269.92801
1044.00000,224.34081
1046.00000,203.04741
1048.00000,189.79259
1050.00000,162.16335
1052.00000,132.81192
1054.00000,139.72441
1056.00000,142.77579
1058.00000,149.24292
1060.00000,138.96468
1062.00000,81.13523
1064.00000,87.43856
1066.00000,87.56397
1068.00000,82.02174
1070.00000,97.00360
1072.00000,49.35042
1074.00000,126.35994
1076.00000,150.61298
1078.00000,58.16491
1080.00000,117.41119
1082.00000,191.02777
1084.00000,146.96735
1086.00000,103.44519
1088.00000,167.63774
1090.00000,130.98607
1092.00000,105.77300
1094.00000,94.91132
1096.00000,66.31917
1098.00000,76.44306
1100.00000,56.47976
1102.00000,49.34674
1104.00000,70.89919
1106.00000,84.87232
1108.00000,116.38545
1110.00000,159.85641
1112.00000,182.47853
1114.00000,171.76199
1116.00000,157.33836
1118.00000,166.72253
1120.00000,248.09468
1122.00000,264.54529
1124.00000,133.64240
1126.00000,201.91565
1128.00000,221.87154
1130.00000,168.99323
1132.00000,164.08955
1134.00000,113.10120
1136.00000,86.86969
1138.00000,97.56034
1140.00000,105.73943
1142.00000,90.80476
1144.00000,78.17580
1146.00000,97.34534
1148.00000,106.26844
1150.00000,95.44352
1152.00000,144.16017
1154.00000,153.66608
1156.00000,142.24352
1158.00000,169.57077
1160.00000,219.78188
1162.00000,236.33743
1164.00000,229.53822
1166.00000,207.10767
1168.00000,175.03650
1170.00000,163.70685
1172.00000,144.41531
1174.00000,107.02334
1176.00000,78.65204
1178.00000,81.19386
1180.00000,78.03032
1182.00000,97.59039
1184.00000,107.71845
1186.00000,81.51757
1188.00000,106.30279
1190.00000,104.72953
1192.00000,127.90552
1194.00000,200.47632
1196.00000,218.63231
1198.00000,219.53867
1200.00000,238.31374
1202.00000,302.43222
1204.00000,408.57828
1206.00000,500.16562
1208.00000,598.49640
1210.00000,747.71350
1212.00000,985.87207
1214.00000,1323.21948
1216.00000,1704.79126
1218.00000,2075.29028
1220.00000,2382.65405
1222.00000,2554.46436
1224.00000,2513.20264
1226.00000,2332.75195
1228.00000,2010.38562
1230.00000,1573.28772
1232.00000,1182.52161
1234.00000,869.06158
1236.00000,665.21497
1238.00000,557.82861
1240.00000,478.88321
1242.00000,396.24146
1244.00000,354.01385
1246.00000,359.68057
1248.00000,361.62976
1250.00000,320.30936
1252.00000,302.29834
1254.00000,287.62302
1256.00000,238.02969
1258.00000,179.13025
1260.00000,164.82642
1262.00000,157.94716
1264.00000,148.00591
1266.00000,139.81342
1268.00000,115.62773
1270.00000,168.12198
1272.00000,233.97745
1274.00000,284.28012
1276.00000,392.94626
1278.00000,489.22632
1280.00000,571.93317
1282.00000,630.55701
1284.00000,637.03357
1286.00000,606.12830
1288.00000,566.35907
1290.00000,518.94464
1292.00000,461.88898
1294.00000,413.76892
1296.00000,387.28323
1298.00000,323.12036
1300.00000,231.84779
1302.00000,191.49823
1304.00000,216.61969
1306.00000,235.21060
1308.00000,247.69521
1310.00000,271.39771
1312.00000,281.89996
1314.00000,301.49994
1316.00000,325.31268
1318.00000,340.77231
1320.00000,325.84631
1322.00000,256.99796
1324.00000,256.03430
1326.00000,236.36276
1328.00000,135.39151
1330.00000,103.65466
1332.00000,86.04959
1334.00000,69.07146
1336.00000,55.22770
1338.00000,42.29329
1340.00000,59.94885
1342.00000,65.12122
1344.00000,48.54258
1346.00000,42.48293
1348.00000,66.91010
1350.00000,107.49984
1352.00000,145.86583
1354.00000,142.47897
1356.00000,115.93282
1358.00000,210.27478
1360.00000,230.51701
1362.00000,203.48012
1364.00000,255.54771
1366.00000,262.77960
1368.00000,200.95378
1370.00000,198.51305
1372.00000,227.41385
1374.00000,148.44647
1376.00000,135.29192
1378.00000,100.66497
1380.00000,88.87098
1382.00000,154.28502
1384.00000,113.49324
1386.00000,137.10735
1388.00000,158.65109
1390.00000,128.78365
1392.00000,165.06013
1394.00000,162.99878
1396.00000,140.02567
1398.00000,140.06667
1400.00000,137.18106
1402.00000,86.59195
1404.00000,116.75204
1406.00000,125.35635
1408.00000,56.23462
1410.00000,52.65712
1412.00000,33.91364
1414.00000,24.97173
1416.00000,34.71728
1418.00000,35.70210
1420.00000,62.38895
1422.00000,88.35459
1424.00000,96.90678
1426.00000,87.98080
1428.00000,80.89513
1430.00000,146.95407
1432.00000,211.23483
1434.00000,240.61844
1436.00000,294.21207
1438.00000,383.56140
1440.00000,498.93121
1442.00000,681.15442
1444.00000,864.24945
1446.00000,893.76837
1448.00000,988.06268
1450.00000,1094.29883
1452.00000,1094.23181
1454.00000,1043.57544
1456.00000,1085.20422
1458.00000,1123.58496
1460.00000,1076.30640
1462.00000,1007.61505
1464.00000,1038.48865
1466.00000,1091.54272
1468.00000,1111.50977
1470.00000,1092.82336
1472.00000,1056.96094
1474.00000,1046.09448
1476.00000,1052.35730
1478.00000,1020.13794
1480.00000,887.54694
1482.00000,670.70343
1484.00000,547.29224
1486.00000,418.01514
1488.00000,269.09039
1490.00000,253.93327
1492.00000,196.28065
1494.00000,132.92191
1496.00000,111.93489
1498.00000,111.90119
1500.00000,122.56555
1502.00000,111.21483
1504.00000,83.09024
1506.00000,73.47452
1508.00000,95.48649
1510.00000,98.27554
1512.00000,85.16258
1514.00000,67.73826
1516.00000,53.31842
1518.00000,67.95448
1520.00000,108.81895
1522.00000,119.90141
1524.00000,106.86112
1526.00000,138.73061
1528.00000,135.28419
1530.00000,130.23073
1532.00000,128.60349
1534.00000,87.25743
1536.00000,49.05315
1538.00000,69.62848
1540.00000,93.44249
1542.00000,62.89825
1544.00000,39.12849
1546.00000,99.82740
1548.00000,122.87526
1550.00000,81.60292
1552.00000,86.29720
1554.00000,112.93378
1556.00000,91.12098
1558.00000,74.16333
1560.00000,106.39544
1562.00000,105.92517
1564.00000,97.47437
1566.00000,90.62093
1568.00000,98.80559
1570.00000,129.74440
1572.00000,123.22963
1574.00000,62.57682
1576.00000,41.89316
1578.00000,110.73199
1580.00000,158.33858
1582.00000,163.57637
1584.00000,103.42986
1586.00000,55.94110
1588.00000,119.21847
1590.00000,140.25064
1592.00000,111.90461
1594.00000,107.65859
1596.00000,130.79865
1598.00000,105.66551
1600.00000,149.17656
1602.00000,148.64131
1604.00000,92.63613
1606.00000,137.72609
1608.00000,96.58195
1610.00000,135.63768
1612.00000,160.71753
1614.00000,52.00541
1616.00000,160.31755
1618.00000,189.19954
1620.00000,125.10081
1622.00000,142.41167
1624.00000,201.82959
1626.00000,106.49706
1628.00000,54.65401
1630.00000,130.62941
1632.00000,169.59807
1634.00000,111.50993
1636.00000,132.75380
1638.00000,168.15082
1640.00000,127.25674
1642.00000,113.46954
1644.00000,90.93176
1646.00000,91.31604
1648.00000,93.11464
1650.00000,54.93359
1652.00000,65.84130
1654.00000,78.23007
1656.00000,73.53484
1658.00000,85.02430
1660.00000,109.21349
1662.00000,58.46636
1664.00000,20.81936
1666.00000,34.92216
1668.00000,51.16376
1670.00000,118.74252
1672.00000,97.68613
1674.00000,85.48866
1676.00000,161.51672
1678.00000,127.56144
1680.00000,130.36166
1682.00000,119.54231
1684.00000,94.86376
1686.00000,163.95337
1688.00000,187.43584
1690.00000,136.03583
1692.00000,98.18812
1694.00000,111.93771
1696.00000,95.02097
1698.00000,124.08028
1700.00000,139.56148
1702.00000,128.67061
1704.00000,161.71886
1706.00000,126.01114
1708.00000,162.04317
1710.00000,188.15143
1712.00000,113.06250
1714.00000,182.98346
1716.00000,123.56573
1718.00000,80.38518
1720.00000,182.93266
1722.00000,196.72549
1724.00000,135.97600
1726.00000,196.07820
1728.00000,259.87436
1730.00000,169.42149
1732.00000,196.24907
1734.00000,150.56462
1736.00000,129.84155
1738.00000,206.12097
1740.00000,178.63095
1742.00000,185.47624
1744.00000,151.50537
1746.00000,152.46161
1748.00000,258.36783
1750.00000,140.33536
1752.00000,97.49330
1754.00000,179.58391
1756.00000,200.68204
1758.00000,132.23538
1760.00000,100.70823
1762.00000,141.45380
1764.00000,153.41940
1766.00000,83.40709
1768.00000,108.29504
1770.00000,182.75653
1772.00000,180.71846
1774.00000,128.70816
1776.00000,180.68248
1778.00000,174.86800
1780.00000,109.10168
1782.00000,124.23238
1784.00000,231.71979
1786.00000,177.73633
1788.00000,189.33211
1790.00000,254.47328
1792.00000,212.94934
1794.00000,182.51086
1796.00000,242.62323
1798.00000,207.18599
1800.00000,153.50885
1802.00000,296.51819
1804.00000,202.09477
1806.00000,159.94466
1808.00000,232.20746
1810.00000,207.72781
1812.00000,156.35234
1814.00000,133.06564
1816.00000,131.08644
1818.00000,157.57596
1820.00000,212.78101
1822.00000,175.98593
1824.00000,136.21321
1826.00000,134.35114
1828.00000,105.33514
1830.00000,55.04834
1832.00000,129.34431
1834.00000,128.18675
1836.00000,48.77460
1838.00000,178.35854
1840.00000,136.28044
1842.00000,82.03870
1844.00000,126.47511
1846.00000,119.28514
1848.00000,45.38419
1850.00000,62.17620
1852.00000,124.69086
1854.00000,101.64137
1856.00000,32.04252
1858.00000,97.78590
1860.00000,90.74267
1862.00000,22.73864
1864.00000,105.69134
1866.00000,165.24326
1868.00000,182.40196
1870.00000,162.16055
1872.00000,129.25775
1874.00000,137.67557
1876.00000,114.42929
1878.00000,44.14113
1880.00000,56.80050
1882.00000,194.92342
1884.00000,154.87436
1886.00000,76.63335
1888.00000,175.95126
1890.00000,311.60168
1892.00000,169.79037
1894.00000,294.38589
1896.00000,384.78345
1898.00000,298.70782
1900.00000,376.63559
1902.00000,328.65631
1904.00000,251.43053
1906.00000,267.67844
1908.00000,305.01205
1910.00000,250.56010
1912.00000,288.39511
1914.00000,393.84732
1916.00000,417.66428
1918.00000,341.54922
1920.00000,341.98773
1922.00000,373.26581
1924.00000,392.87283
1926.00000,400.51361
1928.00000,348.80194
1930.00000,293.37979
1932.00000,189.51903
1934.00000,148.77881
1936.00000,300.51129
1938.00000,175.75053
1940.00000,183.14490
1942.00000,289.10971
1944.00000,177.65877
1946.00000,256.19125
1948.00000,230.85603
1950.00000,100.93658
1952.00000,93.66408
1954.00000,201.89912
1956.00000,171.11948
1958.00000,101.25439
1960.00000,71.98092
1962.00000,58.05631
1964.00000,132.36197
1966.00000,87.74278
1968.00000,8.42824
1970.00000,47.70692
1972.00000,102.58070
1974.00000,109.63106
1976.00000,102.79153
1978.00000,77.75420
1980.00000,47.34647
1982.00000,147.14619
1984.00000,129.11147
1986.00000,117.38689
1988.00000,205.66812
1990.00000,89.90729
1992.00000,62.71974
1994.00000,118.35199
1996.00000,140.68327
1998.00000,137.22430
2000.00000,149.37154
2002.00000,182.57944
2004.00000,218.55003
2006.00000,110.39754
2008.00000,151.55124
2010.00000,174.71936
2012.00000,115.14322
2014.00000,124.84357
2016.00000,174.38184
2018.00000,127.56712
2020.00000,101.90276
2022.00000,171.05327
2024.00000,106.91673
2026.00000,71.03596
2028.00000,78.98883
2030.00000,78.46588
2032.00000,99.37007
2034.00000,104.70527
2036.00000,111.04738
2038.00000,121.53271
2040.00000,108.21758
2042.00000,84.71147
2044.00000,68.23616
2046.00000,54.79422
2048.00000,47.58797
2050.00000,75.67798
2052.00000,81.55458
2054.00000,56.46256
2056.00000,58.52816
2058.00000,120.89538
2060.00000,123.75076
2062.00000,77.11917
2064.00000,63.20611
2066.00000,89.65337
2068.00000,52.65575
2070.00000,50.14795
2072.00000,95.23042
2074.00000,89.79856
2076.00000,79.40237
2078.00000,72.33060
2080.00000,62.01956
2082.00000,63.41106
2084.00000,98.72820
2086.00000,101.46538
2088.00000,77.01514
2090.00000,69.36757
2092.00000,76.41623
2094.00000,60.98905
2096.00000,50.71498
2098.00000,62.55293
2100.00000,71.56194
2102.00000,81.53885
2104.00000,82.40859
2106.00000,74.44380
2108.00000,86.66737
2110.00000,141.90910
2112.00000,122.26812
2114.00000,60.36296
2116.00000,55.52549
2118.00000,77.13503
2120.00000,91.33694
2122.00000,104.89020
2124.00000,104.53837
2126.00000,63.82886
2128.00000,68.21412
2130.00000,72.35119
2132.00000,59.27044
2134.00000,75.95661
2136.00000,73.19588
2138.00000,47.02502
2140.00000,33.15936
2142.00000,43.85919
2144.00000,46.81316
2146.00000,114.74333
2148.00000,118.50328
2150.00000,34.05659
2152.00000,94.47219
2154.00000,50.72759
2156.00000,34.24523
2158.00000,117.66792
2160.00000,89.67414
2162.00000,73.69781
2164.00000,80.97424
2166.00000,59.94991
2168.00000,27.14161
2170.00000,80.51245
2172.00000,132.53485
2174.00000,101.80946
2176.00000,37.85279
2178.00000,56.80628
2180.00000,48.45880
2182.00000,54.81088
2184.00000,101.37696
2186.00000,67.72105
2188.00000,61.28555
2190.00000,72.06488
2192.00000,58.33008
2194.00000,57.64658
2196.00000,119.03719
2198.00000,111.04244
2200.00000,58.44220
2202.00000,77.82758
2204.00000,69.12102
2206.00000,78.52175
2208.00000,94.81973
2210.00000,71.14480
2212.00000,47.01364
2214.00000,73.46326
2216.00000,85.81533
2218.00000,69.92670
2220.00000,104.29498
2222.00000,84.48599
2224.00000,26.09401
2226.00000,34.94919
2228.00000,116.58343
2230.00000,63.28386
2232.00000,23.99951
2234.00000,52.97890
2236.00000,59.60092
2238.00000,70.03486
2240.00000,87.48531
2242.00000,88.06973
2244.00000,72.86047
2246.00000,77.90197
2248.00000,72.69049
2250.00000,62.02375
2252.00000,61.09962
2254.00000,68.21176
2256.00000,89.32981
2258.00000,77.26906
2260.00000,68.27280
2262.00000,118.20859
2264.00000,112.37730
2266.00000,59.08192
2268.00000,59.00310
2270.00000,114.51736
2272.00000,72.65083
2274.00000,79.28645
2276.00000,111.76238
2278.00000,93.20534
2280.00000,76.69192
2282.00000,39.99440
2284.00000,80.09261
2286.00000,142.51915
2288.00000,76.06879
2290.00000,93.01104
2292.00000,126.21351
2294.00000,93.87651
2296.00000,49.93880
2298.00000,65.36715
2300.00000,103.13825
2302.00000,105.64508
2304.00000,92.24360
2306.00000,136.84637
2308.00000,122.18084
2310.00000,68.44727
2312.00000,61.81446
2314.00000,97.33833
2316.00000,96.60194
2318.00000,91.19944
2320.00000,91.53687
2322.00000,68.40171
2324.00000,83.76344
2326.00000,86.82082
2328.00000,73.94007
2330.00000,80.13284
2332.00000,72.15706
2334.00000,84.46549
2336.00000,115.72498
2338.00000,125.88668
2340.00000,95.40733
2342.00000,66.77303
2344.00000,85.82560
2346.00000,116.16779
2348.00000,82.35452
2350.00000,55.23471
2352.00000,59.85820
2354.00000,76.17680
2356.00000,78.34913
2358.00000,63.57999
2360.00000,72.75529
2362.00000,110.05488
2364.00000,122.62141
2366.00000,72.16197
2368.00000,85.54835
2370.00000,119.36420
2372.00000,94.69798
2374.00000,78.05475
2376.00000,111.62749
2378.00000,119.12098
2380.00000,71.77399
2382.00000,51.77397
2384.00000,93.80251
2386.00000,94.81838
2388.00000,54.20973
2390.00000,64.81246
2392.00000,101.83867
2394.00000,86.12974
2396.00000,49.45230
2398.00000,68.02082
2400.00000,128.08742
2402.00000,171.97333
2404.00000,112.99646
2406.00000,46.14984
2408.00000,146.94653
2410.00000,111.65093
2412.00000,56.28023
2414.00000,111.94664
2416.00000,156.38742
2418.00000,106.05671
2420.00000,123.20627
2422.00000,160.36052
2424.00000,97.38575
2426.00000,117.85685
2428.00000,151.83458
2430.00000,112.45154
2432.00000,56.01130
2434.00000,97.59785
2436.00000,76.33420
2438.00000,85.91364
2440.00000,173.45926
2442.00000,167.67058
2444.00000,90.65544
2446.00000,99.44191
2448.00000,127.84560
2450.00000,48.11344
2452.00000,111.05344
2454.00000,160.91266
2456.00000,135.18030
2458.00000,124.70663
2460.00000,124.00777
2462.00000,126.12014
2464.00000,125.24903
2466.00000,128.10318
2468.00000,142.70821
2470.00000,125.45460
2472.00000,93.25055
2474.00000,75.09249
2476.00000,72.38940
2478.00000,86.94297
2480.00000,94.85845
2482.00000,88.24439
2484.00000,80.81109
2486.00000,76.30930
2488.00000,65.81025
2490.00000,68.95892
2492.00000,78.22098
2494.00000,49.67061
2496.00000,105.72750
2498.00000,135.03987
2500.00000,84.62978
2502.00000,109.80025
2504.00000,99.49825
2506.00000,68.26214
2508.00000,48.03944
2510.00000,25.22025
2512.00000,44.24200
2514.00000,59.88765
2516.00000,58.68428
2518.00000,75.73267
2520.00000,110.98849
2522.00000,112.60246
2524.00000,65.26696
2526.00000,46.36115
2528.00000,132.15620
2530.00000,112.13554
2532.00000,66.87650
2534.00000,111.40568
2536.00000,140.88670
2538.00000,62.64748
2540.00000,90.47902
2542.00000,164.01277
2544.00000,69.39892
2546.00000,89.42594
2548.00000,95.77917
2550.00000,69.78579
2552.00000,110.65476
2554.00000,137.62793
2556.00000,142.65623
2558.00000,152.70305
2560.00000,148.74525
2562.00000,95.44136
2564.00000,122.36467
2566.00000,126.91388
2568.00000,84.14409
2570.00000,126.44693
2572.00000,148.13213
2574.00000,110.28737
2576.00000,103.38976
2578.00000,174.78093
2580.00000,156.60854
2582.00000,72.92675
2584.00000,96.89706
2586.00000,208.34250
2588.00000,117.04220
2590.00000,78.82923
2592.00000,105.28860
2594.00000,109.30569
2596.00000,139.35938
2598.00000,108.09360
2600.00000,76.72101
2602.00000,86.77866
2604.00000,85.02715
2606.00000,75.32690
2608.00000,111.49555
2610.00000,144.31569
2612.00000,117.42309
2614.00000,118.04245
2616.00000,58.26007
2618.00000,51.19063
2620.00000,168.01752
2622.00000,184.06361
2624.00000,80.30164
2626.00000,69.72834
2628.00000,159.79855
2630.00000,123.14317
2632.00000,118.32021
2634.00000,130.85606
2636.00000,112.44182
2638.00000,94.51252
2640.00000,109.01604
2642.00000,167.29294
2644.00000,180.82153
2646.00000,115.09499
2648.00000,120.95025
2650.00000,151.96622
2652.00000,115.52578
2654.00000,61.30028
2656.00000,118.53249
2658.00000,84.07669
2660.00000,59.93524
2662.00000,131.26527
2664.00000,162.59825
2666.00000,120.91168
2668.00000,117.99028
2670.00000,139.91125
2672.00000,99.65260
2674.00000,88.41701
2676.00000,109.34977
2678.00000,127.06675
2680.00000,126.63109
2682.00000,128.76390
2684.00000,147.97632
2686.00000,146.28113
2688.00000,104.95920
2690.00000,62.75131
2692.00000,36.78484
2694.00000,91.09954
2696.00000,182.93794
2698.00000,180.44016
2700.00000,103.80134
2702.00000,94.82102
2704.00000,116.32040
2706.00000,76.08053
2708.00000,102.55620
2710.00000,143.37381
2712.00000,126.69707
2714.00000,98.05139
2716.00000,162.24811
2718.00000,176.15846
2720.00000,190.22932
2722.00000,238.43958
2724.00000,228.25519
2726.00000,262.45917
2728.00000,337.96466
2730.00000,384.96820
2732.00000,374.30389
2734.00000,363.82034
2736.00000,365.72397
2738.00000,315.30090
2740.00000,217.27107
2742.00000,221.63350
2744.00000,221.42099
2746.00000,158.09836
2748.00000,120.79815
2750.00000,199.80644
2752.00000,197.46072
2754.00000,105.69217
2756.00000,73.93884
2758.00000,143.71292
2760.00000,68.66419
2762.00000,39.36378
2764.00000,104.80231
2766.00000,96.08604
2768.00000,75.97679
2770.00000,133.59578
2772.00000,156.28128
2774.00000,87.73981
2776.00000,124.04707
2778.00000,108.33987
2780.00000,116.34644
2782.00000,214.83270
2784.00000,240.97043
2786.00000,212.72340
2788.00000,246.17307
2790.00000,256.10236
2792.00000,129.80388
2794.00000,201.47023
2796.00000,258.38104
2798.00000,187.18112
2800.00000,167.26707
2802.00000,281.16531
2804.00000,240.17664
2806.00000,129.35181
2808.00000,184.85704
2810.00000,298.62497
2812.00000,246.58684
2814.00000,306.40500
2816.00000,520.86798
2818.00000,522.76031
2820.00000,618.87128
2822.00000,715.21436
2824.00000,709.58008
2826.00000,765.93585
2828.00000,1022.33325
2830.00000,1130.85913
2832.00000,1165.53137
2834.00000,1331.91492
2836.00000,1331.53735
2838.00000,1425.24573
2840.00000,1606.36133
2842.00000,1669.33936
2844.00000,1634.07715
2846.00000,1766.44202
2848.00000,1812.01221
2850.00000,1687.88110
2852.00000,1693.31006
2854.00000,1673.29639
2856.00000,1460.81714
2858.00000,1222.91638
2860.00000,1175.29333
2862.00000,1081.53125
2864.00000,944.19556
2866.00000,773.51007
2868.00000,568.76422
2870.00000,421.94205
2872.00000,385.28253
2874.00000,350.09537
2876.00000,321.01804
2878.00000,429.30750
2880.00000,408.97089
2882.00000,480.19537
2884.00000,639.03961
2886.00000,586.02942
2888.00000,607.75720
2890.00000,787.44525
2892.00000,936.72974
2894.00000,961.71387
2896.00000,1121.18738
2898.00000,1235.64453
2900.00000,1227.14636
2902.00000,1186.48291
2904.00000,1184.18311
2906.00000,1257.38074
2908.00000,1351.18616
2910.00000,1396.27625
2912.00000,1399.58704
2914.00000,1439.83020
2916.00000,1426.79199
2918.00000,1419.75879
2920.00000,1527.35156
2922.00000,1514.34888
2924.00000,1569.83789
2926.00000,1750.25940
2928.00000,1871.37878
2930.00000,1862.42346
2932.00000,2023.77051
2934.00000,2126.23584
2936.00000,2066.54370
2938.00000,2303.57349
2940.00000,2549.45776
2942.00000,2664.07007
2944.00000,2730.47559
2946.00000,2851.94287
2948.00000,3014.34717
2950.00000,3129.12183
2952.00000,3280.75024
2954.00000,3564.34790
2956.00000,3729.22656
2958.00000,3659.70068
2960.00000,3657.96216
2962.00000,3777.70142
2964.00000,3519.88428
2966.00000,3570.89209
2968.00000,3569.57666
2970.00000,3219.72827
2972.00000,3177.80640
2974.00000,3211.50854
2976.00000,2930.87500
2978.00000,2584.51147
2980.00000,2597.79028
2982.00000,2325.50342
2984.00000,2046.75244
2986.00000,2002.42847
2988.00000,1994.49194
2990.00000,1839.08057
2992.00000,1648.84204
2994.00000,1553.22437
2996.00000,1539.52551
2998.00000,1491.79480
3000.00000,1416.97034
3002.00000,1233.62170
3004.00000,1147.92346
3006.00000,1376.85437
3008.00000,1082.79028
3010.00000,879.17975
3012.00000,1014.45886
3014.00000,969.03235
3016.00000,1004.54639
3018.00000,996.66180
3020.00000,843.16003
3022.00000,665.45105
3024.00000,620.23004
3026.00000,600.30194
3028.00000,608.04871
3030.00000,601.99652
3032.00000,428.36517
3034.00000,343.20453
3036.00000,312.93704
3038.00000,272.90622
3040.00000,260.20609
3042.00000,127.75522
3044.00000,270.04340
3046.00000,406.69672
3048.00000,123.44814
3050.00000,272.42828
3052.00000,260.37726
3054.00000,69.47575
3056.00000,139.06493
3058.00000,249.42978
3060.00000,260.04474
3062.00000,141.19696
3064.00000,-7.52110
3066.00000,-9.62911
3068.00000,147.99023
3070.00000,116.34556
3072.00000,25.93128
3074.00000,243.48288
3076.00000,155.16515
3078.00000,139.53673
3080.00000,198.15184
3082.00000,12.40964
3084.00000,-8.76942
3086.00000,126.42944
3088.00000,206.42117
3090.00000,152.76765
3092.00000,99.44949
3094.00000,19.02621
3096.00000,32.06693
3098.00000,131.63058
3100.00000,151.37816
3102.00000,281.18842
3104.00000,346.71414
3106.00000,244.64500
3108.00000,121.23317
3110.00000,54.44899
3112.00000,81.41795
3114.00000,164.43480
3116.00000,202.39954
3118.00000,142.14760
3120.00000,189.61209
3122.00000,179.90694
3124.00000,99.25593
3126.00000,317.30405
3128.00000,345.06183
3130.00000,171.08147
3132.00000,109.82915
3134.00000,211.78423
3136.00000,62.05827
3138.00000,49.21638
3140.00000,293.92264
3142.00000,391.51889
3144.00000,241.75119
3146.00000,299.63666
3148.00000,409.35217
3150.00000,205.18825
3152.00000,2.92833
3154.00000,131.23067
3156.00000,391.99988
3158.00000,487.22510
3160.00000,434.85953
3162.00000,314.78500
3164.00000,236.76141
3166.00000,336.85538
3168.00000,570.92346
3170.00000,516.77325
3172.00000,404.87781
3174.00000,356.21243
3176.00000,218.33223
3178.00000,58.25757
3180.00000,237.18752
3182.00000,407.86197
3184.00000,252.99315
3186.00000,244.16412
3188.00000,276.14825
3190.00000,123.94573
3192.00000,58.91360
3194.00000,405.45114
3196.00000,151.06042
3198.00000,72.48387
3200.00000,323.78494
