300.00000,1306.24243
302.00000,1125.88745
304.00000,955.51471
306.00000,814.24292
308.00000,674.62543
310.00000,536.58429
312.00000,429.62860
314.00000,366.33508
316.00000,331.78751
318.00000,300.03491
320.00000,273.98959
322.00000,275.35544
324.00000,276.69464
326.00000,283.47418
328.00000,299.18719
330.00000,293.79175
332.00000,247.25258
334.00000,288.44122
336.00000,274.44055
338.00000,198.10791
340.00000,296.92859
342.00000,303.87817
344.00000,350.81335
346.00000,496.86334
348.00000,617.58008
350.00000,760.76459
352.00000,922.98413
354.00000,1089.38782
356.00000,1202.89795
358.00000,1189.10352
360.00000,1122.85010
362.00000,994.48798
364.00000,831.99933
366.00000,693.97626
368.00000,535.41577
370.00000,437.81671
372.00000,401.23776
374.00000,359.42639
376.00000,302.46252
378.00000,277.59644
380.00000,263.13226
382.00000,234.16187
384.00000,201.78603
386.00000,170.97984
388.00000,157.25575
390.00000,156.73834
392.00000,144.95514
394.00000,112.56322
396.00000,110.80375
398.00000,112.16916
400.00000,105.51960
402.00000,119.28919
404.00000,110.59736
406.00000,114.67326
408.00000,126.56223
410.00000,121.92061
412.00000,133.23647
414.00000,151.08536
416.00000,165.60614
418.00000,176.15729
420.00000,180.56531
422.00000,168.21141
424.00000,150.54762
426.00000,139.51668
428.00000,136.99066
430.00000,141.95369
432.00000,159.03891
434.00000,186.16643
436.00000,191.62440
438.00000,155.58517
440.00000,161.53267
442.00000,180.25781
444.00000,161.84023
446.00000,150.51173
448.00000,250.17526
450.00000,315.50455
452.00000,347.64279
454.00000,404.22876
456.00000,439.34308
458.00000,456.65945
460.00000,494.97842
462.00000,480.29108
464.00000,372.35245
466.00000,372.21039
468.00000,341.80814
470.00000,294.69818
472.00000,290.20621
474.00000,237.19347
476.00000,197.84322
478.00000,174.29573
480.00000,157.92824
482.00000,161.49838
484.00000,170.58321
486.00000,196.26888
488.00000,186.60030
490.00000,132.86160
492.00000,133.38692
494.00000,146.73343
496.00000,162.15314
498.00000,172.01981
500.00000,156.30508
502.00000,140.38750
504.00000,131.97067
506.00000,141.61125
508.00000,156.43459
510.00000,133.68315
512.00000,111.96621
514.00000,86.23360
516.00000,83.49877
518.00000,143.71815
520.00000,173.21175
522.00000,252.32884
524.00000,329.03931
526.00000,329.86615
528.00000,395.05554
530.00000,468.57855
532.00000,511.84042
534.00000,521.39960
536.00000,499.28049
538.00000,482.66214
540.00000,452.36948
542.00000,380.87564
544.00000,281.86035
546.00000,210.59309
548.00000,190.61273
550.00000,196.36839
552.00000,192.88013
554.00000,176.85466
556.00000,175.83560
558.00000,194.86018
560.00000,246.71217
562.00000,318.58340
564.00000,344.94046
566.00000,412.44727
568.00000,499.89005
570.00000,560.09418
572.00000,627.16241
574.00000,653.27002
576.00000,625.60883
578.00000,572.48840
580.00000,533.50342
582.00000,525.79401
584.00000,508.55411
586.00000,460.11691
588.00000,415.18774
590.00000,418.12039
592.00000,403.74280
594.00000,360.83218
596.00000,329.71777
598.00000,330.32748
600.00000,317.02869
602.00000,298.85019
604.00000,293.75290
606.00000,297.82758
608.00000,293.72314
610.00000,282.88852
612.00000,266.82278
614.00000,245.52658
616.00000,220.62617
618.00000,197.54800
620.00000,194.20900
622.00000,197.64989
624.00000,185.29390
626.00000,165.83171
628.00000,146.87291
630.00000,140.53716
632.00000,132.88261
634.00000,111.72472
636.00000,130.67734
638.00000,76.12691
640.00000,47.23445
642.00000,144.52742
644.00000,122.00134
646.00000,86.02372
648.00000,100.87045
650.00000,129.78168
652.00000,147.43352
654.00000,194.52357
656.00000,271.45377
658.00000,323.88324
660.00000,371.61139
662.00000,554.95135
664.00000,684.47430
666.00000,737.44592
668.00000,774.18365
670.00000,750.23431
672.00000,671.73840
674.00000,561.19275
676.00000,460.20358
678.00000,402.34799
680.00000,365.59842
682.00000,306.38742
684.00000,267.01382
686.00000,265.83487
688.00000,234.29289
690.00000,217.04326
692.00000,217.45657
694.00000,204.89638
696.00000,171.04852
698.00000,152.36237
700.00000,145.03242
702.00000,142.70409
704.00000,135.99301
706.00000,111.01193
708.00000,100.02603
710.00000,102.11999
712.00000,99.83212
714.00000,116.08259
716.00000,224.06807
718.00000,343.98557
720.00000,439.47375
722.00000,540.98853
724.00000,666.09546
726.00000,846.20654
728.00000,1026.83386
730.00000,1175.71497
732.00000,1330.52075
734.00000,1489.99951
736.00000,1619.06580
738.00000,1711.90442
740.00000,1788.65173
742.00000,1850.49048
744.00000,1875.06726
746.00000,1880.46619
748.00000,1860.76355
750.00000,1766.66833
752.00000,1613.99109
754.00000,1492.79199
756.00000,1352.37524
758.00000,1119.51172
760.00000,926.58636
762.00000,795.65472
764.00000,654.09222
766.00000,498.08087
768.00000,416.55908
770.00000,371.79843
772.00000,330.36737
774.00000,282.63766
776.00000,239.51845
778.00000,225.89677
780.00000,236.12640
782.00000,239.65309
784.00000,222.45976
786.00000,202.44026
788.00000,181.18613
790.00000,160.03993
792.00000,139.84845
794.00000,121.26608
796.00000,112.32899
798.00000,131.05124
800.00000,116.34435
802.00000,61.73926
804.00000,67.99138
806.00000,56.51398
808.00000,90.30299
810.00000,165.05435
812.00000,197.23395
814.00000,285.06012
816.00000,437.29520
818.00000,661.69824
820.00000,972.00549
822.00000,1346.10938
824.00000,1766.52319
826.00000,2215.64600
828.00000,2610.27979
830.00000,2803.15503
832.00000,2707.33594
834.00000,2461.82520
836.00000,2168.45093
838.00000,1863.88086
840.00000,1620.42004
842.00000,1456.65771
844.00000,1344.84021
846.00000,1279.84753
848.00000,1271.14197
850.00000,1246.70007
852.00000,1176.34607
854.00000,1078.87598
856.00000,1008.31830
858.00000,1012.79803
860.00000,1030.67419
862.00000,1040.21948
864.00000,1048.95190
866.00000,1052.21484
868.00000,1047.51709
870.00000,977.40106
872.00000,844.00360
874.00000,705.43127
876.00000,585.20361
878.00000,512.59979
880.00000,464.19354
882.00000,407.56122
884.00000,355.47165
886.00000,338.85995
888.00000,331.56830
890.00000,333.56653
892.00000,362.63232
894.00000,375.11246
896.00000,361.92468
898.00000,345.25623
900.00000,350.24075
902.00000,375.11508
904.00000,378.72531
906.00000,342.72858
908.00000,289.39688
910.00000,254.68512
912.00000,246.09282
914.00000,263.44913
916.00000,256.67413
918.00000,213.98317
920.00000,205.40276
922.00000,196.32016
924.00000,158.80394
926.00000,124.96677
928.00000,132.21614
930.00000,131.08006
932.00000,131.52518
934.00000,126.58985
936.00000,112.55830
938.00000,122.06335
940.00000,110.49857
942.00000,91.89188
944.00000,78.47251
946.00000,55.26573
948.00000,61.37830
950.00000,93.88697
952.00000,116.99500
954.00000,127.44566
956.00000,177.30840
958.00000,240.68506
960.00000,302.23169
962.00000,350.32025
964.00000,358.04721
966.00000,315.25955
968.00000,261.20935
970.00000,223.89510
972.00000,199.00288
974.00000,172.40347
976.00000,138.31519
978.00000,141.18105
980.00000,184.46283
982.00000,197.20062
984.00000,168.72481
986.00000,149.48143
988.00000,136.86308
990.00000,105.84396
992.00000,106.01323
994.00000,106.51064
996.00000,86.91349
998.00000,67.10642
1000.00000,69.72631
1002.00000,69.04340
1004.00000,104.45584
1006.00000,150.83644
1008.00000,136.81291
1010.00000,101.04108
1012.00000,80.52771
1014.00000,82.82163
1016.00000,95.84447
1018.00000,116.70074
1020.00000,175.46582
1022.00000,229.31734
1024.00000,273.72958
1026.00000,330.03497
1028.00000,330.38373
1030.00000,388.00015
1032.00000,407.57553
1034.00000,324.78656
1036.00000,337.57303
1038.00000,280.99515
1040.00000,256.03348
1042.00000,286.64993
1044.00000,218.58981
1046.00000,166.83125
1048.00000,145.55972
1050.00000,135.76617
1052.00000,139.48921
1054.00000,154.98305
1056.00000,139.99516
1058.00000,116.71891
1060.00000,103.06818
1062.00000,80.95872
1064.00000,75.71697
1066.00000,75.74181
1068.00000,70.11195
1070.00000,77.81332
1072.00000,113.26289
1074.00000,84.63941
1076.00000,70.81153
1078.00000,115.50021
1080.00000,112.72381
1082.00000,89.30273
1084.00000,98.02698
1086.00000,106.05190
1088.00000,79.20594
1090.00000,98.62170
1092.00000,117.46359
1094.00000,102.62991
1096.00000,83.05354
1098.00000,90.70737
1100.00000,72.21233
1102.00000,61.94096
1104.00000,66.14412
1106.00000,61.27684
1108.00000,91.80794
1110.00000,119.43530
1112.00000,121.65271
1114.00000,109.22523
1116.00000,105.97477
1118.00000,148.73938
1120.00000,166.95236
1122.00000,144.25842
1124.00000,148.22739
1126.00000,178.61678
1128.00000,175.02892
1130.00000,141.92291
1132.00000,123.22604
1134.00000,128.42461
1136.00000,145.69107
1138.00000,106.73401
1140.00000,61.71484
1142.00000,94.26066
1144.00000,56.29072
1146.00000,88.36167
1148.00000,147.21944
1150.00000,118.49101
1152.00000,114.46378
1154.00000,127.37708
1156.00000,139.95058
1158.00000,163.71532
1160.00000,206.60001
1162.00000,230.33371
1164.00000,235.23366
1166.00000,220.53641
1168.00000,187.43463
1170.00000,161.05424
1172.00000,141.76492
1174.00000,110.39115
1176.00000,75.47687
1178.00000,70.45359
1180.00000,81.11199
1182.00000,93.98249
1184.00000,108.12315
1186.00000,110.68587
1188.00000,75.82529
1190.00000,67.03339
1192.00000,69.03696
1194.00000,77.65092
1196.00000,136.03404
1198.00000,159.17570
1200.00000,179.57149
1202.00000,241.09346
1204.00000,318.15179
1206.00000,368.71539
1208.00000,472.47961
1210.00000,663.86853
1212.00000,916.42719
1214.00000,1217.64795
1216.00000,1612.06543
1218.00000,2045.24268
1220.00000,2380.99854
1222.00000,2512.09497
1224.00000,2459.66797
1226.00000,2266.77515
1228.00000,1947.35425
1230.00000,1543.56311
1232.00000,1161.55115
1234.00000,867.33868
1236.00000,653.23779
1238.00000,502.57925
1240.00000,405.41415
1242.00000,329.46036
1244.00000,321.99350
1246.00000,358.46298
1248.00000,359.52127
1250.00000,304.69998
1252.00000,259.99985
1254.00000,219.56694
1256.00000,191.26631
1258.00000,204.51277
1260.00000,189.36038
1262.00000,152.31474
1264.00000,101.79726
1266.00000,87.45564
1268.00000,184.01851
1270.00000,179.30461
1272.00000,206.21103
1274.00000,313.41336
1276.00000,328.98239
1278.00000,437.24399
1280.00000,532.98785
1282.00000,587.10809
1284.00000,643.26636
1286.00000,597.63562
1288.00000,528.27991
1290.00000,493.47934
1292.00000,465.67212
1294.00000,394.76843
1296.00000,315.59958
1298.00000,269.71140
1300.00000,255.40257
1302.00000,244.67421
1304.00000,225.24374
1306.00000,183.24153
1308.00000,182.71683
1310.00000,217.46687
1312.00000,198.29680
1314.00000,239.10931
1316.00000,258.06564
1318.00000,232.39079
1320.00000,218.22466
1322.00000,152.69089
1324.00000,150.15511
1326.00000,161.38748
1328.00000,107.32655
1330.00000,67.62647
1332.00000,64.46280
1334.00000,52.65565
1336.00000,37.24424
1338.00000,50.37971
1340.00000,36.04190
1342.00000,33.09149
1344.00000,58.73381
1346.00000,69.28844
1348.00000,38.33728
1350.00000,73.98838
1352.00000,92.06315
1354.00000,82.78914
1356.00000,125.95005
1358.00000,97.33939
1360.00000,167.27126
1362.00000,232.66093
1364.00000,181.89606
1366.00000,255.14214
1368.00000,280.82819
1370.00000,243.95787
1372.00000,228.85689
1374.00000,231.09251
1376.00000,180.68919
1378.00000,164.12898
1380.00000,169.43652
1382.00000,151.42828
1384.00000,194.46991
1386.00000,227.24544
1388.00000,220.18895
1390.00000,199.81540
1392.00000,184.30141
1394.00000,156.02319
1396.00000,140.22855
1398.00000,134.43922
1400.00000,117.77861
1402.00000,114.49410
1404.00000,149.25317
1406.00000,127.21707
1408.00000,68.55607
1410.00000,118.19078
1412.00000,111.37949
1414.00000,74.11739
1416.00000,67.75923
1418.00000,80.65390
1420.00000,92.39923
1422.00000,92.75500
1424.00000,96.30006
1426.00000,116.13050
1428.00000,138.42662
1430.00000,143.93037
1432.00000,186.81688
1434.00000,261.01929
1436.00000,311.14407
1438.00000,376.89890
1440.00000,508.04410
1442.00000,648.82404
1444.00000,765.99164
1446.00000,910.01898
1448.00000,971.10901
1450.00000,1038.49841
1452.00000,1106.75439
1454.00000,1074.60535
1456.00000,1078.31555
1458.00000,1050.87927
1460.00000,1010.98810
1462.00000,1014.76208
1464.00000,1005.67487
1466.00000,1005.31860
1468.00000,1004.53644
1470.00000,1016.96960
1472.00000,1046.78552
1474.00000,985.74445
1476.00000,950.42218
1478.00000,915.74951
1480.00000,799.25385
1482.00000,692.43616
1484.00000,561.11517
1486.00000,406.55133
1488.00000,272.25662
1490.00000,189.64258
1492.00000,147.29619
1494.00000,107.03364
1496.00000,72.77449
1498.00000,70.98055
1500.00000,86.04548
1502.00000,78.49773
1504.00000,70.33339
1506.00000,73.28972
1508.00000,63.19156
1510.00000,77.82175
1512.00000,78.82061
1514.00000,65.40696
1516.00000,60.19213
1518.00000,37.12358
1520.00000,92.27662
1522.00000,93.20313
1524.00000,28.82464
1526.00000,110.21642
1528.00000,106.36243
1530.00000,81.98897
1532.00000,85.54799
1534.00000,69.24784
1536.00000,112.23916
1538.00000,113.62045
1540.00000,62.02021
1542.00000,55.18754
1544.00000,121.32724
1546.00000,79.14007
1548.00000,53.76352
1550.00000,75.24920
1552.00000,47.43805
1554.00000,111.21130
1556.00000,111.90184
1558.00000,80.20310
1560.00000,104.40840
1562.00000,91.34489
1564.00000,112.69085
1566.00000,153.68265
1568.00000,155.61269
1570.00000,116.31252
1572.00000,99.26148
1574.00000,97.16616
1576.00000,112.95954
1578.00000,148.39362
1580.00000,155.33199
1582.00000,97.71848
1584.00000,60.80760
1586.00000,75.04669
1588.00000,84.84408
1590.00000,133.24307
1592.00000,133.35014
1594.00000,104.10062
1596.00000,120.06022
1598.00000,139.37228
1600.00000,169.78561
1602.00000,177.95059
1604.00000,153.42340
1606.00000,138.63971
1608.00000,134.45769
1610.00000,129.09203
1612.00000,106.20287
1614.00000,73.24093
1616.00000,75.86565
1618.00000,113.48115
1620.00000,104.43851
1622.00000,54.33592
1624.00000,71.05483
1626.00000,91.22975
1628.00000,112.84466
1630.00000,110.93753
1632.00000,75.28870
1634.00000,104.88414
1636.00000,144.54202
1638.00000,113.28285
1640.00000,62.79869
1642.00000,109.15249
1644.00000,104.97313
1646.00000,105.17895
1648.00000,98.80246
1650.00000,41.14748
1652.00000,105.93496
1654.00000,75.98513
1656.00000,49.36588
1658.00000,126.60018
1660.00000,87.92853
1662.00000,117.17073
1664.00000,138.68994
1666.00000,108.28381
1668.00000,130.64732
1670.00000,156.34718
1672.00000,93.78927
1674.00000,79.25654
1676.00000,168.58960
1678.00000,127.59653
1680.00000,82.92275
1682.00000,72.31694
1684.00000,71.62857
1686.00000,80.11069
1688.00000,80.18424
1690.00000,107.64233
1692.00000,125.44221
1694.00000,103.62197
1696.00000,118.19775
1698.00000,141.85271
1700.00000,161.23555
1702.00000,163.35835
1704.00000,136.89168
1706.00000,137.14159
1708.00000,173.40535
1710.00000,160.33563
1712.00000,79.85088
1714.00000,95.24361
1716.00000,176.77791
1718.00000,166.20811
1720.00000,83.36582
1722.00000,123.43049
1724.00000,195.14496
1726.00000,153.16187
1728.00000,140.11464
1730.00000,256.99734
1732.00000,184.28641
1734.00000,190.58087
1736.00000,215.91983
1738.00000,164.23430
1740.00000,215.27644
1742.00000,244.52686
1744.00000,196.70244
1746.00000,176.61346
1748.00000,241.54214
1750.00000,221.06528
1752.00000,219.87059
1754.00000,224.81104
1756.00000,223.04257
1758.00000,290.49448
1760.00000,207.20891
1762.00000,183.46326
1764.00000,222.61052
1766.00000,131.59694
1768.00000,170.44301
1770.00000,199.88676
1772.00000,160.95197
1774.00000,121.79079
1776.00000,87.49851
1778.00000,56.37191
1780.00000,56.29877
1782.00000,90.64052
1784.00000,108.98582
1786.00000,71.02559
1788.00000,113.58376
1790.00000,161.70541
1792.00000,122.35766
1794.00000,134.42500
1796.00000,90.40301
1798.00000,83.89876
1800.00000,148.04549
1802.00000,141.36122
1804.00000,79.25021
1806.00000,57.88624
1808.00000,72.58679
1810.00000,49.58403
1812.00000,9.91067
1814.00000,109.80979
1816.00000,173.98518
1818.00000,142.47639
1820.00000,184.06013
1822.00000,99.67360
1824.00000,89.51405
1826.00000,149.82498
1828.00000,119.57308
1830.00000,117.54253
1832.00000,67.85632
1834.00000,29.35272
1836.00000,62.92854
1838.00000,93.34052
1840.00000,98.00401
1842.00000,87.36169
1844.00000,119.01965
1846.00000,182.54196
1848.00000,154.42484
1850.00000,259.12848
1852.00000,292.37500
1854.00000,182.63799
1856.00000,277.65555
1858.00000,254.75055
1860.00000,226.47441
1862.00000,327.46594
1864.00000,386.28311
1866.00000,221.49588
1868.00000,248.71509
1870.00000,317.64856
1872.00000,192.49960
1874.00000,175.72566
1876.00000,228.22325
1878.00000,262.84119
1880.00000,323.62259
1882.00000,418.99570
1884.00000,321.61523
1886.00000,324.98779
1888.00000,347.48587
1890.00000,220.07742
1892.00000,219.64439
1894.00000,354.11392
1896.00000,297.68338
1898.00000,167.23682
1900.00000,307.60736
1902.00000,233.93887
1904.00000,248.82120
1906.00000,284.42642
1908.00000,194.44315
1910.00000,351.79367
1912.00000,235.76874
1914.00000,213.36555
1916.00000,358.75150
1918.00000,137.90831
1920.00000,103.29310
1922.00000,201.10809
1924.00000,214.07770
1926.00000,167.23914
1928.00000,212.69597
1930.00000,175.04842
1932.00000,99.45122
1934.00000,117.13297
1936.00000,184.90048
1938.00000,166.93205
1940.00000,214.71759
1942.00000,284.84119
1944.00000,223.96088
1946.00000,182.48279
1948.00000,191.88133
1950.00000,176.16936
1952.00000,103.46560
1954.00000,60.75222
1956.00000,123.26403
1958.00000,154.12003
1960.00000,148.34836
1962.00000,152.51170
1964.00000,19.32887
1966.00000,146.18251
1968.00000,347.02167
1970.00000,288.39771
1972.00000,167.99168
1974.00000,191.45419
1976.00000,191.54131
1978.00000,163.34857
1980.00000,217.35983
1982.00000,111.10596
1984.00000,175.49933
1986.00000,250.95119
1988.00000,150.64470
1990.00000,219.10507
1992.00000,240.29161
1994.00000,190.90224
1996.00000,178.95529
1998.00000,219.58136
2000.00000,255.78658
2002.00000,277.41968
2004.00000,248.65134
2006.00000,110.83194
2008.00000,189.87483
2010.00000,202.34097
2012.00000,162.23840
2014.00000,277.33807
2016.00000,202.35448
2018.00000,147.59029
2020.00000,155.43544
2022.00000,125.91106
2024.00000,130.85756
2026.00000,97.49319
2028.00000,79.32081
2030.00000,107.80602
2032.00000,100.18925
2034.00000,100.07285
2036.00000,101.89973
2038.00000,106.70576
2040.00000,134.72733
2042.00000,148.14473
2044.00000,127.30724
2046.00000,97.59892
2048.00000,89.98058
2050.00000,89.60924
2052.00000,82.39104
2054.00000,88.95763
2056.00000,101.53998
2058.00000,76.73034
2060.00000,105.97742
2062.00000,173.89656
2064.00000,173.73936
2066.00000,77.39200
2068.00000,79.54382
2070.00000,82.97959
2072.00000,57.58260
2074.00000,92.83037
2076.00000,97.68671
2078.00000,80.63287
2080.00000,56.64627
2082.00000,39.01878
2084.00000,66.83212
2086.00000,85.96302
2088.00000,83.48249
2090.00000,93.14543
2092.00000,120.41005
2094.00000,82.43024
2096.00000,51.03298
2098.00000,60.79987
2100.00000,47.23423
2102.00000,51.35699
2104.00000,60.79672
2106.00000,75.87346
2108.00000,109.34685
2110.00000,122.99548
2112.00000,95.08776
2114.00000,72.83072
2116.00000,67.72726
2118.00000,21.31563
2120.00000,86.16135
2122.00000,127.88184
2124.00000,72.48203
2126.00000,88.33151
2128.00000,58.25131
2130.00000,82.00442
2132.00000,135.80597
2134.00000,70.14697
2136.00000,50.47702
2138.00000,69.41101
2140.00000,68.36499
2142.00000,57.02505
2144.00000,90.17077
2146.00000,93.07013
2148.00000,88.32121
2150.00000,92.35097
2152.00000,40.22506
2154.00000,92.67960
2156.00000,139.94038
2158.00000,108.89987
2160.00000,114.89067
2162.00000,79.87870
2164.00000,67.97939
2166.00000,79.99692
2168.00000,50.53242
2170.00000,63.42866
2172.00000,115.98512
2174.00000,157.91389
2176.00000,151.09782
2178.00000,108.66620
2180.00000,104.52419
2182.00000,128.90230
2184.00000,137.76385
2186.00000,136.66217
2188.00000,151.70064
2190.00000,166.49129
2192.00000,172.41130
2194.00000,171.61676
2196.00000,124.09552
2198.00000,129.10555
2200.00000,172.87047
2202.00000,144.70300
2204.00000,79.28242
2206.00000,84.89752
2208.00000,107.96373
2210.00000,76.29984
2212.00000,76.25105
2214.00000,82.50554
2216.00000,95.99228
2218.00000,113.12828
2220.00000,95.57240
2222.00000,64.40694
2224.00000,93.45509
2226.00000,128.16206
2228.00000,65.15701
2230.00000,40.38637
2232.00000,77.87707
2234.00000,85.61708
2236.00000,38.64004
2238.00000,80.18423
2240.00000,107.79833
2242.00000,87.13869
2244.00000,80.80125
2246.00000,110.46858
2248.00000,92.73608
2250.00000,38.98622
2252.00000,15.95017
2254.00000,42.03285
2256.00000,50.47907
2258.00000,59.16113
2260.00000,80.26852
2262.00000,93.29025
2264.00000,106.26516
2266.00000,83.73437
2268.00000,60.11504
2270.00000,97.26725
2272.00000,154.69695
2274.00000,97.54141
2276.00000,67.62743
2278.00000,136.77269
2280.00000,115.22831
2282.00000,151.84424
2284.00000,156.13028
2286.00000,76.47910
2288.00000,61.29844
2290.00000,143.26195
2292.00000,155.01062
2294.00000,86.04346
2296.00000,82.04076
2298.00000,142.73730
2300.00000,136.96239
2302.00000,86.90768
2304.00000,88.51640
2306.00000,113.61614
2308.00000,96.72089
2310.00000,82.70059
2312.00000,107.44891
2314.00000,121.74242
2316.00000,133.11086
2318.00000,131.20691
2320.00000,135.82524
2322.00000,168.00388
2324.00000,158.31427
2326.00000,154.68665
2328.00000,160.40042
2330.00000,140.92059
2332.00000,137.82500
2334.00000,153.70126
2336.00000,139.49414
2338.00000,105.87151
2340.00000,133.19095
2342.00000,105.53256
2344.00000,98.12798
2346.00000,142.84673
2348.00000,121.46038
2350.00000,101.39657
2352.00000,120.94797
2354.00000,128.74664
2356.00000,91.45328
2358.00000,116.98779
2360.00000,142.32932
2362.00000,149.89960
2364.00000,168.34509
2366.00000,157.18105
2368.00000,118.96944
2370.00000,75.68630
2372.00000,67.10229
2374.00000,118.08641
2376.00000,145.65298
2378.00000,134.57014
2380.00000,137.54364
2382.00000,182.64122
2384.00000,184.80276
2386.00000,137.05249
2388.00000,120.20882
2390.00000,168.57280
2392.00000,162.47548
2394.00000,142.50670
2396.00000,157.84138
2398.00000,177.91553
2400.00000,148.42712
2402.00000,176.36841
2404.00000,218.92688
2406.00000,208.76585
2408.00000,192.80716
2410.00000,188.71570
2412.00000,147.45665
2414.00000,116.68918
2416.00000,170.70874
2418.00000,167.14548
2420.00000,197.67285
2422.00000,235.20201
2424.00000,185.51271
2426.00000,161.44336
2428.00000,136.94064
2430.00000,110.67210
2432.00000,119.39211
2434.00000,150.06526
2436.00000,109.17682
2438.00000,112.97812
2440.00000,168.55630
2442.00000,118.78558
2444.00000,136.27090
2446.00000,173.73712
2448.00000,129.60420
2450.00000,39.37296
2452.00000,42.81634
2454.00000,67.80358
2456.00000,66.28619
2458.00000,75.79894
2460.00000,115.18441
2462.00000,122.48273
2464.00000,124.33040
2466.00000,143.96005
2468.00000,126.83148
2470.00000,114.24303
2472.00000,128.39380
2474.00000,148.51559
2476.00000,152.60483
2478.00000,171.26601
2480.00000,183.76357
2482.00000,185.71193
2484.00000,187.48495
2486.00000,156.23244
2488.00000,93.45348
2490.00000,73.96999
2492.00000,132.13675
2494.00000,167.26703
2496.00000,120.21976
2498.00000,106.69785
2500.00000,155.95461
2502.00000,128.44171
2504.00000,108.77709
2506.00000,130.10239
2508.00000,126.17239
2510.00000,65.47827
2512.00000,95.90062
2514.00000,147.71756
2516.00000,159.67072
2518.00000,163.25757
2520.00000,179.01102
2522.00000,155.68074
2524.00000,133.27092
2526.00000,122.75233
2528.00000,51.26411
2530.00000,103.65011
2532.00000,123.01273
2534.00000,96.20229
2536.00000,240.09845
2538.00000,197.88210
2540.00000,146.36537
2542.00000,203.83406
2544.00000,193.99702
2546.00000,106.33077
2548.00000,158.64557
2550.00000,235.13176
2552.00000,150.32033
2554.00000,136.57466
2556.00000,221.53520
2558.00000,201.98462
2560.00000,71.78399
2562.00000,113.52641
2564.00000,148.32304
2566.00000,121.60288
2568.00000,116.37715
2570.00000,174.15523
2572.00000,195.98355
2574.00000,203.70914
2576.00000,230.19589
2578.00000,237.96011
2580.00000,179.19885
2582.00000,194.17065
2584.00000,239.90599
2586.00000,187.95236
2588.00000,99.44090
2590.00000,112.44759
2592.00000,185.52994
2594.00000,188.94351
2596.00000,95.76152
2598.00000,53.47269
2600.00000,77.11457
2602.00000,108.54819
2604.00000,109.94610
2606.00000,83.63802
2608.00000,96.66360
2610.00000,139.43526
2612.00000,154.43546
2614.00000,152.27478
2616.00000,118.02932
2618.00000,73.77288
2620.00000,60.16669
2622.00000,82.45352
2624.00000,105.47359
2626.00000,146.08655
2628.00000,172.04440
2630.00000,115.87147
2632.00000,90.03240
2634.00000,105.15260
2636.00000,97.02293
2638.00000,63.02563
2640.00000,124.89941
2642.00000,168.18599
2644.00000,126.23289
2646.00000,98.79504
2648.00000,197.46837
2650.00000,196.08110
2652.00000,100.02238
2654.00000,71.26034
2656.00000,121.84441
2658.00000,77.37751
2660.00000,72.08385
2662.00000,134.88495
2664.00000,90.55579
2666.00000,82.45541
2668.00000,119.42904
2670.00000,115.70901
2672.00000,59.64668
2674.00000,86.04665
2676.00000,147.34949
2678.00000,164.15779
2680.00000,160.49551
2682.00000,230.09293
2684.00000,246.73660
2686.00000,178.74915
2688.00000,130.88358
2690.00000,176.29811
2692.00000,148.32356
2694.00000,135.63739
2696.00000,189.32475
2698.00000,210.15126
2700.00000,215.02882
2702.00000,184.16620
2704.00000,147.92151
2706.00000,180.06569
2708.00000,265.17871
2710.00000,182.38608
2712.00000,165.86734
2714.00000,350.64529
2716.00000,324.43069
2718.00000,275.18594
2720.00000,317.80832
2722.00000,353.32318
2724.00000,288.14365
2726.00000,305.33340
2728.00000,325.19370
2730.00000,330.31778
2732.00000,407.25830
2734.00000,431.67459
2736.00000,390.23886
2738.00000,344.32748
2740.00000,313.27679
2742.00000,237.87383
2744.00000,190.34100
2746.00000,207.59709
2748.00000,221.02713
2750.00000,141.39171
2752.00000,76.40290
2754.00000,88.90840
2756.00000,104.10690
2758.00000,31.80194
2760.00000,-0.14533
2762.00000,13.00130
2764.00000,34.47465
2766.00000,69.35284
2768.00000,132.96204
2770.00000,118.61104
2772.00000,49.91402
2774.00000,37.21275
2776.00000,90.35753
2778.00000,118.74783
2780.00000,134.27443
2782.00000,178.43407
2784.00000,216.38602
2786.00000,190.89680
2788.00000,167.44958
2790.00000,156.70787
2792.00000,119.98796
2794.00000,168.63486
2796.00000,194.36394
2798.00000,227.44061
2800.00000,329.37198
2802.00000,299.22690
2804.00000,270.49817
2806.00000,279.23822
2808.00000,283.78500
2810.00000,320.80649
2812.00000,328.90604
2814.00000,408.96475
2816.00000,562.87482
2818.00000,617.39386
2820.00000,641.25781
2822.00000,749.53320
2824.00000,864.08887
2826.00000,905.61768
2828.00000,1132.53931
2830.00000,1269.80640
2832.00000,1258.60132
2834.00000,1350.59644
2836.00000,1606.02075
2838.00000,1614.59607
2840.00000,1608.61279
2842.00000,1807.40100
2844.00000,1842.86829
2846.00000,1885.53906
2848.00000,1955.56506
2850.00000,1923.38586
2852.00000,1748.97925
2854.00000,1612.71570
2856.00000,1557.86975
2858.00000,1460.41663
2860.00000,1247.89343
2862.00000,1102.29761
2864.00000,1010.48505
2866.00000,923.48798
2868.00000,810.78790
2870.00000,658.37671
2872.00000,583.18762
2874.00000,533.98175
2876.00000,486.58755
2878.00000,565.10010
2880.00000,701.23944
2882.00000,669.55945
2884.00000,534.00543
2886.00000,559.42365
2888.00000,613.10553
2890.00000,745.46967
2892.00000,853.79797
2894.00000,891.29895
2896.00000,1174.34766
2898.00000,1253.44128
2900.00000,1197.95801
2902.00000,1286.08997
2904.00000,1307.65283
2906.00000,1222.75928
2908.00000,1316.18396
2910.00000,1508.08521
2912.00000,1393.10583
2914.00000,1430.78992
2916.00000,1547.55139
2918.00000,1517.62012
2920.00000,1436.28430
2922.00000,1621.42627
2924.00000,1753.65771
2926.00000,1855.22827
2928.00000,2087.66650
2930.00000,2123.07861
2932.00000,2156.81006
2934.00000,2272.15918
2936.00000,2389.95801
2938.00000,2501.77759
2940.00000,2709.72754
2942.00000,2878.13452
2944.00000,2965.61914
2946.00000,3099.42651
2948.00000,3175.34155
2950.00000,3370.41260
2952.00000,3610.29053
2954.00000,3713.68115
2956.00000,3951.84277
2958.00000,4119.79297
2960.00000,4070.95190
2962.00000,3954.27930
2964.00000,3976.12378
2966.00000,3857.38745
2968.00000,3750.05273
2970.00000,3743.73633
2972.00000,3574.99365
2974.00000,3516.25415
2976.00000,3237.13135
2978.00000,2841.35693
2980.00000,2827.80029
2982.00000,2672.20703
2984.00000,2551.73755
2986.00000,2507.19409
2988.00000,2347.08032
2990.00000,2207.71216
2992.00000,2045.41943
2994.00000,1903.39148
2996.00000,1846.09265
2998.00000,1805.53845
3000.00000,1749.93726
3002.00000,1744.10742
3004.00000,1659.50793
3006.00000,1389.70471
3008.00000,1571.20313
3010.00000,1458.11877
3012.00000,1135.54333
3014.00000,1431.04126
3016.00000,1474.74731
3018.00000,1258.36035
3020.00000,1079.61719
3022.00000,978.68365
3024.00000,781.92029
3026.00000,744.37872
3028.00000,769.23853
3030.00000,719.03070
3032.00000,741.41705
3034.00000,616.87427
3036.00000,479.36670
3038.00000,437.69025
3040.00000,378.55508
3042.00000,384.74481
3044.00000,371.46652
3046.00000,360.82870
3048.00000,336.03329
3050.00000,28.72380
3052.00000,199.08887
3054.00000,337.25659
3056.00000,0.02346
3058.00000,383.48505
3060.00000,474.65210
3062.00000,265.72955
3064.00000,256.42426
3066.00000,281.52133
3068.00000,251.80330
3070.00000,313.44458
3072.00000,473.32675
3074.00000,494.23233
3076.00000,293.65875
3078.00000,352.35184
3080.00000,361.52652
3082.00000,3.82338
3084.00000,304.65576
3086.00000,550.88416
3088.00000,406.89609
3090.00000,320.98373
3092.00000,568.83246
3094.00000,401.81174
3096.00000,349.26465
3098.00000,642.03064
3100.00000,546.16821
3102.00000,674.67175
3104.00000,549.49786
3106.00000,267.39471
3108.00000,466.03784
3110.00000,432.42932
3112.00000,586.15289
3114.00000,791.16229
3116.00000,707.44025
3118.00000,873.12317
3120.00000,569.80151
3122.00000,445.09842
3124.00000,824.85736
3126.00000,567.80438
3128.00000,737.90399
3130.00000,636.68127
3132.00000,162.62602
3134.00000,427.47409
3136.00000,315.09265
3138.00000,356.95389
3140.00000,649.77734
3142.00000,620.18121
3144.00000,692.33221
3146.00000,244.62927
3148.00000,118.79578
3150.00000,696.49170
3152.00000,186.19084
3154.00000,612.01440
3156.00000,764.59467
3158.00000,-8.98071
3160.00000,513.00000
3162.00000,217.22957
3164.00000,180.94382
3166.00000,649.54565
3168.00000,168.30196
3170.00000,473.45618
3172.00000,655.62946
3174.00000,335.95062
3176.00000,262.80963
3178.00000,312.97202
3180.00000,487.40982
3182.00000,538.97882
3184.00000,305.71143
3186.00000,62.32555
3188.00000,-102.28581
3190.00000,219.54402
3192.00000,657.98163
3194.00000,338.83853
3196.00000,373.05035
3198.00000,439.07935
3200.00000,171.59698
