300.00000,1477.48596
302.00000,1360.97546
304.00000,1161.07507
306.00000,988.37726
308.00000,781.74823
310.00000,581.56616
312.00000,482.72382
314.00000,421.55533
316.00000,367.16617
318.00000,331.36749
320.00000,294.71249
322.00000,247.36879
324.00000,322.82333
326.00000,368.31213
328.00000,352.89087
330.00000,371.86945
332.00000,362.95566
334.00000,353.90814
336.00000,363.25842
338.00000,372.03784
340.00000,375.19058
342.00000,438.91135
344.00000,520.83441
346.00000,622.27600
348.00000,787.00873
350.00000,965.98676
352.00000,1135.34802
354.00000,1269.55676
356.00000,1341.08362
358.00000,1337.35181
360.00000,1262.49768
362.00000,1115.80396
364.00000,928.68622
366.00000,752.34564
368.00000,603.05927
370.00000,492.69467
372.00000,415.45840
374.00000,352.34863
376.00000,299.81970
378.00000,295.45255
380.00000,276.40051
382.00000,232.69662
384.00000,210.87349
386.00000,151.30527
388.00000,124.70682
390.00000,92.50375
392.00000,64.47610
394.00000,184.23427
396.00000,157.34962
398.00000,104.96512
400.00000,124.05312
402.00000,90.50108
404.00000,138.24542
406.00000,172.68460
408.00000,132.77274
410.00000,86.42473
412.00000,99.21342
414.00000,107.63998
416.00000,152.22737
418.00000,173.83817
420.00000,72.69544
422.00000,130.06943
424.00000,211.07239
426.00000,199.77010
428.00000,167.81483
430.00000,174.92027
432.00000,184.88716
434.00000,176.49326
436.00000,179.64290
438.00000,212.16075
440.00000,186.74307
442.00000,163.42871
444.00000,196.85057
446.00000,245.46701
448.00000,246.49875
450.00000,263.07455
452.00000,302.02347
454.00000,341.49640
456.00000,402.56302
458.00000,490.19348
460.00000,513.93597
462.00000,488.47299
464.00000,478.61484
466.00000,402.92981
468.00000,372.98318
470.00000,350.10715
472.00000,272.33383
474.00000,226.42778
476.00000,193.42514
478.00000,174.97273
480.00000,187.65927
482.00000,214.86348
484.00000,202.71111
486.00000,193.47884
488.00000,191.15520
490.00000,170.66188
492.00000,146.72145
494.00000,140.34212
496.00000,143.71500
498.00000,149.20825
500.00000,153.00813
502.00000,130.52013
504.00000,110.30418
506.00000,97.33115
508.00000,91.87886
510.00000,114.40249
512.00000,95.54388
514.00000,95.53779
516.00000,132.11252
518.00000,128.67027
520.00000,138.52515
522.00000,194.21063
524.00000,257.41788
526.00000,307.42160
528.00000,400.54208
530.00000,470.11554
532.00000,504.63968
534.00000,509.01440
536.00000,468.54175
538.00000,429.40918
540.00000,391.48834
542.00000,329.54553
544.00000,245.63139
546.00000,186.78110
548.00000,163.23962
550.00000,165.67705
552.00000,181.68550
554.00000,197.68115
556.00000,191.40843
558.00000,155.50648
560.00000,139.45399
562.00000,207.85991
564.00000,342.15100
566.00000,435.29327
568.00000,472.32312
570.00000,526.51563
572.00000,611.80457
574.00000,559.70148
576.00000,544.49060
578.00000,581.73370
580.00000,513.07306
582.00000,487.15857
584.00000,474.42514
586.00000,443.83447
588.00000,416.55453
590.00000,408.81882
592.00000,405.41043
594.00000,372.93781
596.00000,319.35812
598.00000,289.76526
600.00000,293.51706
602.00000,304.01563
604.00000,299.26031
606.00000,279.95444
608.00000,263.98511
610.00000,264.10535
612.00000,264.56671
614.00000,252.52434
616.00000,237.82828
618.00000,236.44339
620.00000,254.91806
622.00000,285.46713
624.00000,294.21344
626.00000,241.97998
628.00000,181.57121
630.00000,156.35712
632.00000,169.46870
634.00000,188.10268
636.00000,165.22255
638.00000,127.71202
640.00000,120.95235
642.00000,141.62997
644.00000,133.89513
646.00000,112.02655
648.00000,99.26513
650.00000,87.17835
652.00000,81.62495
654.00000,167.71980
656.00000,135.25089
658.00000,127.73567
660.00000,360.32806
662.00000,471.34756
664.00000,650.90308
666.00000,797.27356
668.00000,765.71838
670.00000,717.14716
672.00000,660.96735
674.00000,575.71649
676.00000,479.64832
678.00000,402.17801
680.00000,330.58279
682.00000,300.25787
684.00000,304.49158
686.00000,278.36743
688.00000,187.59204
690.00000,157.20811
692.00000,163.87775
694.00000,167.40791
696.00000,163.36157
698.00000,105.63087
700.00000,133.44246
702.00000,161.91347
704.00000,96.90747
706.00000,96.50748
708.00000,121.89532
710.00000,119.87112
712.00000,123.26134
714.00000,183.57944
716.00000,237.81915
718.00000,304.60260
720.00000,414.73459
722.00000,577.02698
724.00000,780.76959
726.00000,969.07471
728.00000,1108.61621
730.00000,1249.44690
732.00000,1449.51648
734.00000,1610.07861
736.00000,1694.52441
738.00000,1739.47485
740.00000,1807.28870
742.00000,1918.99036
744.00000,1988.03784
746.00000,1993.83875
748.00000,1951.27869
750.00000,1860.23914
752.00000,1741.47522
754.00000,1601.20764
756.00000,1410.35291
758.00000,1172.10938
760.00000,975.50415
762.00000,824.31598
764.00000,680.56525
766.00000,543.96045
768.00000,459.81366
770.00000,421.30414
772.00000,384.84555
774.00000,331.55875
776.00000,286.25021
778.00000,278.06137
780.00000,272.02750
782.00000,272.46332
784.00000,272.98514
786.00000,233.43140
788.00000,214.32793
790.00000,212.67621
792.00000,203.14633
794.00000,190.12856
796.00000,193.68517
798.00000,184.41844
800.00000,182.70065
802.00000,184.12656
804.00000,130.31894
806.00000,120.22710
808.00000,130.11009
810.00000,162.59816
812.00000,263.02917
814.00000,352.33185
816.00000,504.67249
818.00000,729.93860
820.00000,1003.89795
822.00000,1380.30518
824.00000,1850.21240
826.00000,2324.22949
828.00000,2675.75220
830.00000,2816.73315
832.00000,2755.38672
834.00000,2484.31274
836.00000,2138.72339
838.00000,1873.38940
840.00000,1659.06445
842.00000,1444.93774
844.00000,1320.75745
846.00000,1310.68408
848.00000,1291.63037
850.00000,1223.71692
852.00000,1151.04663
854.00000,1120.44531
856.00000,1107.20239
858.00000,1042.82568
860.00000,1036.30981
862.00000,1055.04810
864.00000,1054.23083
866.00000,1078.03723
868.00000,1062.35742
870.00000,992.69556
872.00000,841.78046
874.00000,636.61011
876.00000,529.24902
878.00000,448.94064
880.00000,382.75812
882.00000,364.35791
884.00000,369.90359
886.00000,356.25385
888.00000,358.41840
890.00000,383.50024
892.00000,401.01492
894.00000,423.43060
896.00000,428.98697
898.00000,396.40021
900.00000,355.18338
902.00000,358.08295
904.00000,348.85648
906.00000,333.61868
908.00000,309.68835
910.00000,264.28900
912.00000,257.73862
914.00000,264.42477
916.00000,224.17796
918.00000,151.81348
920.00000,141.12088
922.00000,154.83333
924.00000,151.96323
926.00000,139.19489
928.00000,132.74841
930.00000,101.28072
932.00000,93.84288
934.00000,112.75583
936.00000,118.69640
938.00000,105.11046
940.00000,79.08001
942.00000,101.84011
944.00000,132.77061
946.00000,87.91122
948.00000,107.83928
950.00000,95.99323
952.00000,80.67963
954.00000,144.87593
956.00000,176.97336
958.00000,214.61581
960.00000,266.10501
962.00000,284.22839
964.00000,249.14162
966.00000,238.65958
968.00000,228.91341
970.00000,205.14417
972.00000,170.52663
974.00000,100.82268
976.00000,97.93471
978.00000,138.67665
980.00000,147.78076
982.00000,128.55211
984.00000,124.47240
986.00000,153.87292
988.00000,168.84904
990.00000,132.35645
992.00000,109.09384
994.00000,93.30360
996.00000,90.34692
998.00000,105.85390
1000.00000,113.60160
1002.00000,95.72401
1004.00000,76.15615
1006.00000,65.70826
1008.00000,63.20080
1010.00000,89.99434
1012.00000,86.47406
1014.00000,91.06806
1016.00000,132.74591
1018.00000,135.10780
1020.00000,148.42844
1022.00000,206.78319
1024.00000,270.27493
1026.00000,310.44376
1028.00000,403.65442
1030.00000,417.90015
1032.00000,394.61099
1034.00000,421.39896
1036.00000,406.04630
1038.00000,398.92529
1040.00000,361.33218
1042.00000,282.30551
1044.00000,226.90030
1046.00000,187.23639
1048.00000,151.45073
1050.00000,138.28389
1052.00000,145.44252
1054.00000,121.79940
1056.00000,103.66725
1058.00000,113.93548
1060.00000,112.37646
1062.00000,69.80558
1064.00000,83.50011
1066.00000,67.30115
1068.00000,64.99649
1070.00000,127.91331
1072.00000,82.39500
1074.00000,71.81868
1076.00000,119.63942
1078.00000,126.66759
1080.00000,73.35913
1082.00000,103.67302
1084.00000,117.31412
1086.00000,82.78135
1088.00000,74.02932
1090.00000,61.04067
1092.00000,61.07501
1094.00000,64.12122
1096.00000,60.63696
1098.00000,61.87279
1100.00000,39.89420
1102.00000,65.19743
1104.00000,83.35531
1106.00000,25.70870
1108.00000,68.86121
1110.00000,103.94730
1112.00000,116.11350
1114.00000,133.55653
1116.00000,106.15154
1118.00000,120.63059
1120.00000,153.34351
1122.00000,157.03006
1124.00000,131.22412
1126.00000,100.31016
1128.00000,172.02238
1130.00000,182.32245
1132.00000,70.62623
1134.00000,107.81697
1136.00000,72.45376
1138.00000,52.86938
1140.00000,93.58495
1142.00000,73.16499
1144.00000,111.57720
1146.00000,146.25426
1148.00000,128.28333
1150.00000,109.05464
1152.00000,155.55426
1154.00000,214.66275
1156.00000,199.28654
1158.00000,144.24928
1160.00000,169.64532
1162.00000,234.84052
1164.00000,211.13783
1166.00000,142.04735
1168.00000,131.47107
1170.00000,123.36366
1172.00000,114.24472
1174.00000,92.11672
1176.00000,64.74003
1178.00000,70.46158
1180.00000,103.36327
1182.00000,91.84608
1184.00000,73.00391
1186.00000,91.05405
1188.00000,45.35458
1190.00000,51.82411
1192.00000,85.04144
1194.00000,90.28210
1196.00000,105.60398
1198.00000,89.71040
1200.00000,145.96838
1202.00000,247.87086
1204.00000,295.18475
1206.00000,378.37106
1208.00000,466.29303
1210.00000,633.15173
1212.00000,949.70172
1214.00000,1335.34167
1216.00000,1693.30981
1218.00000,2042.69910
1220.00000,2405.22778
1222.00000,2653.79102
1224.00000,2554.52148
1226.00000,2330.19507
1228.00000,1978.12561
1230.00000,1506.87207
1232.00000,1188.62683
1234.00000,860.95618
1236.00000,605.44971
1238.00000,484.42041
1240.00000,398.78891
1242.00000,334.82443
1244.00000,291.25311
1246.00000,282.90668
1248.00000,299.76349
1250.00000,290.90302
1252.00000,265.30869
1254.00000,227.44366
1256.00000,178.32614
1258.00000,135.95892
1260.00000,136.51286
1262.00000,183.88234
1264.00000,173.89528
1266.00000,118.65250
1268.00000,221.55853
1270.00000,234.51659
1272.00000,239.84346
1274.00000,334.28351
1276.00000,410.78387
1278.00000,536.41284
1280.00000,620.64258
1282.00000,634.26062
1284.00000,641.55823
1286.00000,652.10785
1288.00000,612.81830
1290.00000,535.43579
1292.00000,464.65771
1294.00000,413.73221
1296.00000,364.22333
1298.00000,312.46475
1300.00000,278.47681
1302.00000,279.69391
1304.00000,300.64703
1306.00000,315.92529
1308.00000,288.51462
1310.00000,258.46661
1312.00000,301.88391
1314.00000,298.93149
1316.00000,308.44626
1318.00000,325.20926
1320.00000,264.88379
1322.00000,190.42778
1324.00000,140.78088
1326.00000,149.45956
1328.00000,159.19614
1330.00000,67.80774
1332.00000,38.00443
1334.00000,46.07486
1336.00000,52.41500
1338.00000,69.17908
1340.00000,41.19756
1342.00000,102.95515
1344.00000,172.86258
1346.00000,130.06856
1348.00000,89.09778
1350.00000,100.05422
1352.00000,104.49863
1354.00000,103.27977
1356.00000,160.53926
1358.00000,216.72147
1360.00000,183.80171
1362.00000,157.37617
1364.00000,220.43826
1366.00000,240.41786
1368.00000,224.32782
1370.00000,204.37637
1372.00000,173.08354
1374.00000,130.15195
1376.00000,150.54498
1378.00000,118.48665
1380.00000,104.79150
1382.00000,166.16974
1384.00000,87.79018
1386.00000,109.32893
1388.00000,183.85898
1390.00000,173.91331
1392.00000,139.28799
1394.00000,157.58905
1396.00000,154.91096
1398.00000,133.63438
1400.00000,139.43246
1402.00000,108.28320
1404.00000,101.57492
1406.00000,102.98709
1408.00000,84.75942
1410.00000,82.66315
1412.00000,86.46947
1414.00000,58.79325
1416.00000,22.89214
1418.00000,43.16591
1420.00000,108.46647
1422.00000,82.36569
1424.00000,55.83046
1426.00000,105.73170
1428.00000,109.98048
1430.00000,118.58762
1432.00000,137.63156
1434.00000,174.69772
1436.00000,269.72260
1438.00000,422.10641
1440.00000,512.26630
1442.00000,613.76477
1444.00000,774.96722
1446.00000,867.55420
1448.00000,1035.55750
1450.00000,1100.52686
1452.00000,1045.32153
1454.00000,1075.33606
1456.00000,1091.34619
1458.00000,1089.81165
1460.00000,1087.89246
1462.00000,1072.93774
1464.00000,1045.04089
1466.00000,1078.00757
1468.00000,1056.08606
1470.00000,1014.25671
1472.00000,1092.85754
1474.00000,1060.38818
1476.00000,1034.78308
1478.00000,981.44855
1480.00000,806.82324
1482.00000,662.89990
1484.00000,508.06207
1486.00000,397.55536
1488.00000,319.92145
1490.00000,174.37033
1492.00000,79.17323
1494.00000,89.51013
1496.00000,125.01669
1498.00000,103.25947
1500.00000,77.61136
1502.00000,78.07226
1504.00000,83.09900
1506.00000,73.15673
1508.00000,58.38793
1510.00000,41.95316
1512.00000,51.90334
1514.00000,68.84756
1516.00000,77.99819
1518.00000,128.33795
1520.00000,96.64029
1522.00000,67.36858
1524.00000,115.68813
1526.00000,112.91735
1528.00000,43.97327
1530.00000,79.76476
1532.00000,175.98085
1534.00000,158.24371
1536.00000,129.54727
1538.00000,129.23824
1540.00000,145.45772
1542.00000,160.85693
1544.00000,163.58911
1546.00000,130.77878
1548.00000,116.72778
1550.00000,135.03893
1552.00000,143.25275
1554.00000,144.66515
1556.00000,122.33485
1558.00000,138.05450
1560.00000,179.75844
1562.00000,111.02386
1564.00000,61.25766
1566.00000,54.92397
1568.00000,93.08022
1570.00000,162.58293
1572.00000,122.62753
1574.00000,126.07571
1576.00000,142.50533
1578.00000,83.31622
1580.00000,84.79447
1582.00000,118.04578
1584.00000,115.28275
1586.00000,100.56631
1588.00000,129.49445
1590.00000,111.64975
1592.00000,105.42643
1594.00000,116.42693
1596.00000,94.19759
1598.00000,67.27454
1600.00000,92.60867
1602.00000,127.24155
1604.00000,120.86237
1606.00000,115.43207
1608.00000,187.17651
1610.00000,189.28230
1612.00000,122.14319
1614.00000,127.85104
1616.00000,185.06697
1618.00000,122.71676
1620.00000,57.62149
1622.00000,112.35645
1624.00000,160.25546
1626.00000,109.34442
1628.00000,62.37090
1630.00000,107.99398
1632.00000,177.81554
1634.00000,130.07394
1636.00000,98.12756
1638.00000,132.24527
1640.00000,155.58740
1642.00000,126.61504
1644.00000,156.48869
1646.00000,167.72266
1648.00000,113.26818
1650.00000,72.99656
1652.00000,91.52177
1654.00000,72.26489
1656.00000,36.86625
1658.00000,59.61489
1660.00000,105.06087
1662.00000,92.67276
1664.00000,132.50677
1666.00000,161.24356
1668.00000,72.90485
1670.00000,173.25426
1672.00000,166.33618
1674.00000,89.41415
1676.00000,139.18747
1678.00000,160.06430
1680.00000,154.61359
1682.00000,123.62412
1684.00000,111.39145
1686.00000,139.99977
1688.00000,61.46273
1690.00000,49.36827
1692.00000,124.30344
1694.00000,125.97029
1696.00000,49.79685
1698.00000,165.12962
1700.00000,210.69717
1702.00000,133.49379
1704.00000,243.79761
1706.00000,216.04805
1708.00000,97.14515
1710.00000,143.36716
1712.00000,324.35718
1714.00000,251.68564
1716.00000,229.86250
1718.00000,252.10565
1720.00000,193.62714
1722.00000,141.22154
1724.00000,128.73302
1726.00000,161.80515
1728.00000,167.25443
1730.00000,123.32707
1732.00000,166.23259
1734.00000,188.96629
1736.00000,245.73875
1738.00000,297.73999
1740.00000,157.07245
1742.00000,110.90958
1744.00000,214.72495
1746.00000,253.55106
1748.00000,154.91624
1750.00000,236.22144
1752.00000,212.86224
1754.00000,132.25980
1756.00000,178.35576
1758.00000,217.94014
1760.00000,156.94141
1762.00000,227.61389
1764.00000,369.24698
1766.00000,308.65833
1768.00000,250.05119
1770.00000,264.56879
1772.00000,238.39513
1774.00000,169.28958
1776.00000,225.70053
1778.00000,186.66386
1780.00000,132.89954
1782.00000,162.45679
1784.00000,163.67822
1786.00000,59.17915
1788.00000,114.09024
1790.00000,205.02695
1792.00000,153.56525
1794.00000,207.78566
1796.00000,242.08156
1798.00000,244.82477
1800.00000,221.44771
1802.00000,156.60254
1804.00000,192.03085
1806.00000,111.01685
1808.00000,4.88018
1810.00000,95.36380
1812.00000,212.92183
1814.00000,252.72542
1816.00000,175.41429
1818.00000,98.17361
1820.00000,174.18970
1822.00000,238.84314
1824.00000,218.05663
1826.00000,188.19003
1828.00000,214.66812
1830.00000,221.05011
1832.00000,222.28691
1834.00000,193.67546
1836.00000,117.98958
1838.00000,79.40349
1840.00000,200.20198
1842.00000,177.31921
1844.00000,78.76984
1846.00000,180.86403
1848.00000,214.12349
1850.00000,130.53549
1852.00000,167.72691
1854.00000,262.63281
1856.00000,99.67931
1858.00000,249.85353
1860.00000,317.06149
1862.00000,216.35147
1864.00000,293.59042
1866.00000,210.55046
1868.00000,191.27238
1870.00000,205.46852
1872.00000,125.01833
1874.00000,132.02979
1876.00000,294.50519
1878.00000,195.57541
1880.00000,15.70049
1882.00000,233.95540
1884.00000,240.09581
1886.00000,138.64339
1888.00000,218.13220
1890.00000,339.37442
1892.00000,134.43869
1894.00000,197.49860
1896.00000,257.59167
1898.00000,132.62642
1900.00000,129.77432
1902.00000,59.41325
1904.00000,101.82217
1906.00000,246.48657
1908.00000,262.70572
1910.00000,145.82542
1912.00000,286.03830
1914.00000,302.97714
1916.00000,158.75032
1918.00000,341.54123
1920.00000,328.66684
1922.00000,222.54602
1924.00000,231.78015
1926.00000,253.37885
1928.00000,89.23210
1930.00000,104.02856
1932.00000,156.73708
1934.00000,178.63689
1936.00000,374.85754
1938.00000,264.09586
1940.00000,224.07877
1942.00000,295.58539
1944.00000,181.52977
1946.00000,144.85457
1948.00000,215.65726
1950.00000,350.56256
1952.00000,425.97488
1954.00000,310.70892
1956.00000,193.43532
1958.00000,285.70435
1960.00000,262.64456
1962.00000,18.24348
1964.00000,418.34912
1966.00000,373.15115
1968.00000,240.22185
1970.00000,490.22821
1972.00000,281.11694
1974.00000,251.10313
1976.00000,322.32251
1978.00000,322.82587
1980.00000,343.16888
1982.00000,246.50768
1984.00000,226.47891
1986.00000,230.03050
1988.00000,118.16903
1990.00000,58.41615
1992.00000,278.83218
1994.00000,366.77982
1996.00000,242.88889
1998.00000,264.02628
2000.00000,240.69469
2002.00000,188.50157
2004.00000,180.24770
2006.00000,182.52965
2008.00000,200.38173
2010.00000,142.45956
2012.00000,82.59764
2014.00000,121.51279
2016.00000,86.89624
2018.00000,77.91661
2020.00000,107.64110
2022.00000,130.88007
2024.00000,179.18819
2026.00000,115.86140
2028.00000,55.07402
2030.00000,77.44496
2032.00000,61.17029
2034.00000,80.91392
2036.00000,88.06174
2038.00000,62.90091
2040.00000,61.49437
2042.00000,57.77615
2044.00000,62.86213
2046.00000,66.67439
2048.00000,56.10135
2050.00000,64.62174
2052.00000,71.60104
2054.00000,69.06278
2056.00000,68.39464
2058.00000,76.54606
2060.00000,90.94897
2062.00000,89.01544
2064.00000,91.58839
2066.00000,127.55948
2068.00000,93.53749
2070.00000,58.06026
2072.00000,61.20206
2074.00000,75.71243
2076.00000,142.34676
2078.00000,134.89841
2080.00000,84.84807
2082.00000,96.53929
2084.00000,110.73952
2086.00000,127.17011
2088.00000,111.91093
2090.00000,74.32238
2092.00000,88.11945
2094.00000,87.97608
2096.00000,87.74597
2098.00000,98.79976
2100.00000,84.74139
2102.00000,61.93753
2104.00000,64.31248
2106.00000,79.06741
2108.00000,67.43997
2110.00000,40.49326
2112.00000,47.79690
2114.00000,61.00078
2116.00000,59.92083
2118.00000,98.49016
2120.00000,71.55335
2122.00000,45.25236
2124.00000,81.68537
2126.00000,94.39722
2128.00000,75.23709
2130.00000,64.92039
2132.00000,106.11455
2134.00000,159.41930
2136.00000,82.00706
2138.00000,58.58073
2140.00000,82.09893
2142.00000,41.36480
2144.00000,89.63426
2146.00000,115.27698
2148.00000,85.66367
2150.00000,85.46805
2152.00000,138.53290
2154.00000,77.92291
2156.00000,31.13633
2158.00000,76.99082
2160.00000,75.09871
2162.00000,74.51102
2164.00000,91.26052
2166.00000,95.30603
2168.00000,93.82911
2170.00000,164.55367
2172.00000,159.55750
2174.00000,97.48758
2176.00000,101.50876
2178.00000,123.86243
2180.00000,104.86943
2182.00000,72.26258
2184.00000,90.10541
2186.00000,147.08937
2188.00000,102.27639
2190.00000,56.68364
2192.00000,60.77932
2194.00000,28.79291
2196.00000,55.37002
2198.00000,81.74171
2200.00000,75.19610
2202.00000,62.40266
2204.00000,22.38432
2206.00000,39.46323
2208.00000,58.98938
2210.00000,36.62079
2212.00000,96.03976
2214.00000,130.40874
2216.00000,115.58998
2218.00000,105.45818
2220.00000,118.77093
2222.00000,111.99557
2224.00000,94.92128
2226.00000,91.15639
2228.00000,105.33700
2230.00000,130.71669
2232.00000,104.27640
2234.00000,65.12106
2236.00000,76.14121
2238.00000,68.77411
2240.00000,78.21805
2242.00000,86.14462
2244.00000,59.20747
2246.00000,42.42084
2248.00000,89.21800
2250.00000,101.12328
2252.00000,55.88474
2254.00000,72.75276
2256.00000,108.17509
2258.00000,80.20288
2260.00000,51.07828
2262.00000,98.19836
2264.00000,60.91320
2266.00000,45.69122
2268.00000,67.61472
2270.00000,52.75321
2272.00000,46.96330
2274.00000,79.76875
2276.00000,103.32615
2278.00000,97.99254
2280.00000,110.20368
2282.00000,78.12070
2284.00000,57.36194
2286.00000,96.63622
2288.00000,129.15450
2290.00000,68.68459
2292.00000,81.47887
2294.00000,151.92995
2296.00000,131.50670
2298.00000,123.46748
2300.00000,130.47809
2302.00000,114.74866
2304.00000,92.29888
2306.00000,123.57059
2308.00000,122.08038
2310.00000,81.85116
2312.00000,55.92562
2314.00000,59.93803
2316.00000,57.09551
2318.00000,84.77987
2320.00000,115.35174
2322.00000,84.35539
2324.00000,83.43183
2326.00000,63.98040
2328.00000,53.38651
2330.00000,105.55603
2332.00000,117.69579
2334.00000,85.34635
2336.00000,56.65827
2338.00000,69.39452
2340.00000,113.23442
2342.00000,131.52936
2344.00000,90.97186
2346.00000,37.99778
2348.00000,44.40797
2350.00000,51.29269
2352.00000,56.91924
2354.00000,57.26642
2356.00000,39.40617
2358.00000,47.25349
2360.00000,76.32623
2362.00000,86.15666
2364.00000,84.61590
2366.00000,135.58209
2368.00000,103.76321
2370.00000,83.78456
2372.00000,155.83124
2374.00000,158.85133
2376.00000,94.85049
2378.00000,123.05395
2380.00000,198.74719
2382.00000,139.95012
2384.00000,151.42628
2386.00000,148.42192
2388.00000,83.61005
2390.00000,55.09042
2392.00000,87.76244
2394.00000,114.74419
2396.00000,124.90974
2398.00000,144.98558
2400.00000,160.66286
2402.00000,154.03200
2404.00000,128.80627
2406.00000,115.36363
2408.00000,152.59912
2410.00000,230.27823
2412.00000,189.52434
2414.00000,100.95993
2416.00000,165.67955
2418.00000,173.84531
2420.00000,134.65158
2422.00000,124.39909
2424.00000,140.11917
2426.00000,120.94098
2428.00000,115.88654
2430.00000,153.23120
2432.00000,158.96075
2434.00000,65.98223
2436.00000,130.65990
2438.00000,170.76137
2440.00000,77.19962
2442.00000,86.37185
2444.00000,136.83060
2446.00000,95.44444
2448.00000,64.27425
2450.00000,160.55255
2452.00000,95.74586
2454.00000,84.09055
2456.00000,146.40359
2458.00000,108.01437
2460.00000,34.35233
2462.00000,71.79095
2464.00000,96.71674
2466.00000,42.25605
2468.00000,81.16029
2470.00000,62.74370
2472.00000,63.92361
2474.00000,129.92560
2476.00000,132.21159
2478.00000,79.71616
2480.00000,115.11945
2482.00000,162.03902
2484.00000,85.63662
2486.00000,89.90131
2488.00000,135.55377
2490.00000,135.82280
2492.00000,100.80646
2494.00000,104.26801
2496.00000,82.15115
2498.00000,69.60035
2500.00000,83.82796
2502.00000,54.44377
2504.00000,44.44359
2506.00000,66.35477
2508.00000,93.80671
2510.00000,113.18131
2512.00000,137.58643
2514.00000,145.79399
2516.00000,141.56531
2518.00000,133.11441
2520.00000,98.15097
2522.00000,128.12636
2524.00000,169.74278
2526.00000,146.39473
2528.00000,126.34620
2530.00000,127.37112
2532.00000,152.09750
2534.00000,167.98941
2536.00000,129.23184
2538.00000,78.93747
2540.00000,86.07549
2542.00000,98.54346
2544.00000,54.61633
2546.00000,103.80155
2548.00000,144.77278
2550.00000,147.79826
2552.00000,168.79750
2554.00000,171.25543
2556.00000,135.57669
2558.00000,98.36655
2560.00000,116.99948
2562.00000,184.47377
2564.00000,159.23950
2566.00000,125.21794
2568.00000,146.73392
2570.00000,138.20247
2572.00000,98.03344
2574.00000,114.48638
2576.00000,131.83017
2578.00000,73.53805
2580.00000,105.83523
2582.00000,136.59303
2584.00000,133.78484
2586.00000,147.25493
2588.00000,166.46687
2590.00000,175.51042
2592.00000,151.35559
2594.00000,107.29684
2596.00000,99.28458
2598.00000,136.24075
2600.00000,140.35504
2602.00000,124.67416
2604.00000,160.79384
2606.00000,148.85797
2608.00000,113.69614
2610.00000,124.70619
2612.00000,171.05516
2614.00000,152.14806
2616.00000,148.39879
2618.00000,162.24306
2620.00000,143.80777
2622.00000,116.59299
2624.00000,121.82067
2626.00000,156.44853
2628.00000,168.24945
2630.00000,129.96977
2632.00000,138.89145
2634.00000,116.40060
2636.00000,73.28086
2638.00000,110.37589
2640.00000,138.10252
2642.00000,129.17764
2644.00000,96.48562
2646.00000,76.55293
2648.00000,107.88539
2650.00000,115.54256
2652.00000,122.84976
2654.00000,140.31769
2656.00000,97.28725
2658.00000,104.74627
2660.00000,127.06922
2662.00000,121.95979
2664.00000,132.15857
2666.00000,138.51540
2668.00000,95.11503
2670.00000,49.82966
2672.00000,63.70245
2674.00000,55.40784
2676.00000,65.96228
2678.00000,64.85389
2680.00000,46.63714
2682.00000,116.47915
2684.00000,89.70351
2686.00000,26.02868
2688.00000,48.96445
2690.00000,100.84754
2692.00000,122.66987
2694.00000,122.29230
2696.00000,105.37544
2698.00000,70.00155
2700.00000,67.55476
2702.00000,52.73254
2704.00000,52.75146
2706.00000,89.93289
2708.00000,42.72459
2710.00000,44.45082
2712.00000,127.80925
2714.00000,178.14349
2716.00000,125.92284
2718.00000,143.17381
2720.00000,214.89264
2722.00000,252.48802
2724.00000,277.09912
2726.00000,359.63791
2728.00000,351.87631
2730.00000,301.85315
2732.00000,375.11188
2734.00000,365.98538
2736.00000,303.36188
2738.00000,242.65227
2740.00000,207.05655
2742.00000,237.69449
2744.00000,227.62941
2746.00000,194.16479
2748.00000,202.24176
2750.00000,201.18661
2752.00000,90.71908
2754.00000,93.09927
2756.00000,167.56526
2758.00000,38.68503
2760.00000,72.70793
2762.00000,122.07780
2764.00000,114.01479
2766.00000,156.93144
2768.00000,113.73315
2770.00000,47.81344
2772.00000,26.01537
2774.00000,74.49590
2776.00000,191.49321
2778.00000,190.15091
2780.00000,182.16293
2782.00000,241.63582
2784.00000,210.95187
2786.00000,230.69852
2788.00000,281.36746
2790.00000,271.48825
2792.00000,224.92607
2794.00000,283.09079
2796.00000,229.63644
2798.00000,197.86964
2800.00000,339.36285
2802.00000,184.59750
2804.00000,106.02839
2806.00000,202.88797
2808.00000,246.90234
2810.00000,211.13943
2812.00000,371.51035
2814.00000,443.95718
2816.00000,370.21329
2818.00000,534.96173
2820.00000,571.32489
2822.00000,597.11633
2824.00000,780.41962
2826.00000,977.36658
2828.00000,980.60065
2830.00000,1104.28113
2832.00000,1216.76733
2834.00000,1144.14282
2836.00000,1367.67236
2838.00000,1513.53333
2840.00000,1522.16455
2842.00000,1644.70093
2844.00000,1890.90063
2846.00000,1865.44019
2848.00000,1734.20422
2850.00000,1746.32544
2852.00000,1761.58459
2854.00000,1516.09106
2856.00000,1407.16565
2858.00000,1357.02002
2860.00000,1061.14709
2862.00000,1026.91614
2864.00000,718.27448
2866.00000,470.76340
2868.00000,627.69025
2870.00000,354.74020
2872.00000,359.21069
2874.00000,439.59149
2876.00000,268.56836
2878.00000,313.99689
2880.00000,540.75787
2882.00000,527.04840
2884.00000,431.47321
2886.00000,710.88788
2888.00000,775.27405
2890.00000,778.92181
2892.00000,993.36719
2894.00000,1231.71838
2896.00000,1073.01721
2898.00000,1182.07886
2900.00000,1361.06116
2902.00000,1284.05298
2904.00000,1481.45801
2906.00000,1521.35059
2908.00000,1497.79553
2910.00000,1621.20239
2912.00000,1704.73987
2914.00000,1648.03564
2916.00000,1675.32239
2918.00000,1753.82031
2920.00000,1715.12378
2922.00000,1888.18164
2924.00000,2030.78674
2926.00000,2042.54907
2928.00000,2116.43799
2930.00000,2328.46851
2932.00000,2395.99023
2934.00000,2409.03101
2936.00000,2589.01196
2938.00000,2846.15625
2940.00000,2965.13135
2942.00000,3078.04004
2944.00000,3203.30298
2946.00000,3205.69653
2948.00000,3419.79858
2950.00000,3627.64331
2952.00000,3765.28687
2954.00000,3982.29785
2956.00000,4082.86743
2958.00000,4110.15430
2960.00000,4054.52783
2962.00000,3970.25415
2964.00000,4069.35254
2966.00000,4039.05981
2968.00000,3902.10474
2970.00000,3731.61963
2972.00000,3415.49951
2974.00000,3237.26587
2976.00000,3062.68262
2978.00000,2808.44824
2980.00000,2627.64600
2982.00000,2460.49146
2984.00000,2292.64526
2986.00000,2153.54639
2988.00000,2034.19739
2990.00000,1875.22266
2992.00000,1810.42981
2994.00000,1726.95520
2996.00000,1590.62976
2998.00000,1659.03760
3000.00000,1587.89282
3002.00000,1400.54858
3004.00000,1242.88013
3006.00000,1132.08459
3008.00000,1256.95593
3010.00000,1145.40442
3012.00000,925.48242
3014.00000,1103.10742
3016.00000,1053.00684
3018.00000,909.50427
3020.00000,979.52344
3022.00000,1097.07007
3024.00000,780.91888
3026.00000,755.77979
3028.00000,855.95239
3030.00000,650.43036
3032.00000,449.50836
3034.00000,310.62723
3036.00000,324.94620
3038.00000,398.94345
3040.00000,326.20166
3042.00000,315.68356
3044.00000,362.48773
3046.00000,384.40610
3048.00000,324.23254
3050.00000,158.19754
3052.00000,194.50734
3054.00000,309.93701
3056.00000,239.32397
3058.00000,163.89220
3060.00000,176.87642
3062.00000,88.38506
3064.00000,10.42770
3066.00000,286.53131
3068.00000,199.07027
3070.00000,152.36447
3072.00000,269.80145
3074.00000,99.91407
3076.00000,172.68796
3078.00000,100.27259
3080.00000,37.06434
3082.00000,289.84106
3084.00000,93.96366
3086.00000,74.24946
3088.00000,131.06096
3090.00000,0.69042
3092.00000,180.37527
3094.00000,82.03599
3096.00000,146.42764
3098.00000,449.48932
3100.00000,241.19640
3102.00000,319.99893
3104.00000,435.81802
3106.00000,295.21783
3108.00000,192.47119
3110.00000,314.70166
3112.00000,321.15134
3114.00000,233.35612
3116.00000,343.40094
3118.00000,504.96085
3120.00000,209.50798
3122.00000,163.62784
3124.00000,636.30298
3126.00000,540.48328
3128.00000,550.61041
3130.00000,350.24243
3132.00000,-8.35818
3134.00000,277.10175
3136.00000,516.52277
3138.00000,293.96420
3140.00000,128.18117
3142.00000,425.93866
3144.00000,241.61615
3146.00000,150.61147
3148.00000,346.48892
3150.00000,401.02164
3152.00000,274.63281
3154.00000,583.23712
3156.00000,629.76172
3158.00000,205.49370
3160.00000,355.69699
3162.00000,223.80646
3164.00000,176.91919
3166.00000,364.21646
3168.00000,256.16495
3170.00000,345.06036
3172.00000,512.23285
3174.00000,567.70056
3176.00000,567.25604
3178.00000,614.92761
3180.00000,711.41089
3182.00000,745.64880
3184.00000,657.39935
3186.00000,538.70929
3188.00000,429.06631
3190.00000,418.01300
3192.00000,464.85077
3194.00000,406.48874
3196.00000,353.04187
3198.00000,475.27667
3200.00000,631.94849
