300.00000,1307.34302
302.00000,1152.00024
304.00000,998.20587
306.00000,854.11053
308.00000,683.14813
310.00000,528.62976
312.00000,449.01279
314.00000,396.80521
316.00000,352.99976
318.00000,304.02490
320.00000,262.19421
322.00000,256.63419
324.00000,269.31775
326.00000,305.12994
328.00000,349.19540
330.00000,371.18835
332.00000,359.86163
334.00000,288.78946
336.00000,253.09859
338.00000,233.30527
340.00000,121.97583
342.00000,224.22897
344.00000,346.42029
346.00000,419.62488
348.00000,598.33075
350.00000,784.33856
352.00000,952.22351
354.00000,1099.50098
356.00000,1200.64136
358.00000,1219.16382
360.00000,1159.13379
362.00000,1027.46045
364.00000,865.02545
366.00000,722.23169
368.00000,594.16113
370.00000,486.56128
372.00000,403.27127
374.00000,343.21875
376.00000,303.50900
378.00000,274.08374
380.00000,261.91968
382.00000,270.14761
384.00000,260.79285
386.00000,173.86159
388.00000,145.26509
390.00000,121.10622
392.00000,57.30492
394.00000,122.59506
396.00000,105.18760
398.00000,62.87975
400.00000,78.20190
402.00000,81.70221
404.00000,101.76131
406.00000,152.34679
408.00000,160.94176
410.00000,116.75876
412.00000,152.55565
414.00000,167.21202
416.00000,140.55022
418.00000,145.25092
420.00000,203.63280
422.00000,203.37955
424.00000,208.16513
426.00000,233.43314
428.00000,221.85602
430.00000,184.57195
432.00000,141.58321
434.00000,97.14352
436.00000,108.33841
438.00000,207.96457
440.00000,188.13390
442.00000,163.87062
444.00000,193.47903
446.00000,200.23076
448.00000,218.24574
450.00000,263.96994
452.00000,323.12320
454.00000,375.34235
456.00000,419.22488
458.00000,467.00757
460.00000,458.43918
462.00000,425.18408
464.00000,429.44333
466.00000,383.52402
468.00000,371.68655
470.00000,361.90915
472.00000,292.29590
474.00000,221.90317
476.00000,171.71333
478.00000,159.20143
480.00000,178.31233
482.00000,195.10805
484.00000,183.04446
486.00000,158.54718
488.00000,151.85432
490.00000,179.27232
492.00000,221.55894
494.00000,222.24918
496.00000,225.18745
498.00000,227.85738
500.00000,178.08684
502.00000,154.41849
504.00000,148.78409
506.00000,145.37831
508.00000,149.61678
510.00000,157.62189
512.00000,149.09274
514.00000,118.04329
516.00000,81.79233
518.00000,80.63688
520.00000,149.39243
522.00000,185.71605
524.00000,207.47897
526.00000,273.62415
528.00000,302.28473
530.00000,355.37234
532.00000,435.53412
534.00000,490.66382
536.00000,491.33661
538.00000,452.68188
540.00000,386.23575
542.00000,312.64731
544.00000,255.42413
546.00000,220.05125
548.00000,206.80682
550.00000,199.61842
552.00000,180.44684
554.00000,154.02109
556.00000,155.41920
558.00000,180.66275
560.00000,234.24481
562.00000,302.38983
564.00000,317.70947
566.00000,365.36328
568.00000,450.84464
570.00000,528.36798
572.00000,582.33832
574.00000,561.88367
576.00000,551.88959
578.00000,559.31079
580.00000,520.68085
582.00000,503.21277
584.00000,448.08600
586.00000,399.01544
588.00000,404.04660
590.00000,385.20734
592.00000,349.73962
594.00000,316.20969
596.00000,298.05463
598.00000,291.21240
600.00000,265.29303
602.00000,254.22618
604.00000,278.11340
606.00000,303.04257
608.00000,279.11063
610.00000,242.99965
612.00000,223.22227
614.00000,233.40369
616.00000,258.60287
618.00000,236.15704
620.00000,228.31664
622.00000,233.09030
624.00000,213.37976
626.00000,205.58022
628.00000,172.60245
630.00000,144.54880
632.00000,153.81831
634.00000,170.54196
636.00000,159.67416
638.00000,136.45609
640.00000,116.13393
642.00000,106.18983
644.00000,118.37962
646.00000,116.82492
648.00000,110.71940
650.00000,127.80952
652.00000,167.37315
654.00000,213.41051
656.00000,278.02628
658.00000,351.68985
660.00000,433.66684
662.00000,574.20184
664.00000,710.07574
666.00000,797.48047
668.00000,813.10406
670.00000,744.28802
672.00000,665.57013
674.00000,627.42468
676.00000,571.91187
678.00000,445.10318
680.00000,355.18253
682.00000,300.42963
684.00000,287.75577
686.00000,298.97726
688.00000,263.22760
690.00000,212.91098
692.00000,182.16994
694.00000,167.86023
696.00000,150.53487
698.00000,138.30174
700.00000,146.60555
702.00000,141.98140
704.00000,112.71803
706.00000,113.89303
708.00000,122.64543
710.00000,115.56944
712.00000,126.85036
714.00000,197.12842
716.00000,268.63297
718.00000,334.24683
720.00000,417.21799
722.00000,542.57428
724.00000,716.82813
726.00000,900.18768
728.00000,1054.04822
730.00000,1196.77051
732.00000,1366.25732
734.00000,1511.04077
736.00000,1624.89941
738.00000,1724.33423
740.00000,1808.78516
742.00000,1860.26587
744.00000,1904.33533
746.00000,1933.53271
748.00000,1915.36462
750.00000,1828.55859
752.00000,1685.65820
754.00000,1547.97375
756.00000,1403.51306
758.00000,1203.51404
760.00000,984.44318
762.00000,801.21729
764.00000,677.41565
766.00000,579.87384
768.00000,466.97983
770.00000,396.90366
772.00000,362.68979
774.00000,328.17538
776.00000,283.01166
778.00000,250.60480
780.00000,239.29977
782.00000,246.17549
784.00000,245.44069
786.00000,211.25301
788.00000,193.26273
790.00000,194.16206
792.00000,196.71265
794.00000,189.72977
796.00000,168.06427
798.00000,181.51926
800.00000,191.44240
802.00000,155.56024
804.00000,126.80331
806.00000,119.12176
808.00000,119.52757
810.00000,124.44450
812.00000,174.84865
814.00000,329.85251
816.00000,453.44040
818.00000,618.13861
820.00000,929.87085
822.00000,1279.27075
824.00000,1752.77039
826.00000,2247.08936
828.00000,2590.28857
830.00000,2715.15503
832.00000,2645.81641
834.00000,2410.17529
836.00000,2094.56470
838.00000,1807.14148
840.00000,1592.70349
842.00000,1432.39148
844.00000,1300.69592
846.00000,1205.68787
848.00000,1170.08887
850.00000,1159.01343
852.00000,1106.47363
854.00000,1007.82037
856.00000,925.77710
858.00000,911.86810
860.00000,918.03577
862.00000,931.15790
864.00000,957.96204
866.00000,984.82794
868.00000,994.59998
870.00000,919.92761
872.00000,752.46094
874.00000,570.20776
876.00000,450.45880
878.00000,355.62094
880.00000,285.23355
882.00000,256.42648
884.00000,250.68504
886.00000,257.09586
888.00000,280.92273
890.00000,296.84351
892.00000,279.56375
894.00000,272.54333
896.00000,297.03137
898.00000,324.28293
900.00000,320.04889
902.00000,293.74429
904.00000,284.89795
906.00000,277.70123
908.00000,253.37971
910.00000,222.08723
912.00000,198.13884
914.00000,194.78218
916.00000,196.06401
918.00000,182.42542
920.00000,165.94710
922.00000,170.78336
924.00000,176.29997
926.00000,162.74623
928.00000,139.05553
930.00000,115.72751
932.00000,96.98021
934.00000,130.86455
936.00000,177.46933
938.00000,100.53128
940.00000,112.95937
942.00000,123.91013
944.00000,76.65422
946.00000,93.13599
948.00000,62.36044
950.00000,84.32743
952.00000,137.70386
954.00000,131.42886
956.00000,152.28029
958.00000,225.24544
960.00000,215.93065
962.00000,191.94266
964.00000,321.04135
966.00000,220.32008
968.00000,175.67419
970.00000,206.50516
972.00000,106.82635
974.00000,108.34027
976.00000,97.59562
978.00000,97.34121
980.00000,140.70685
982.00000,126.14133
984.00000,101.17760
986.00000,109.93362
988.00000,157.73940
990.00000,184.96407
992.00000,109.31074
994.00000,103.41117
996.00000,116.14491
998.00000,74.59586
1000.00000,90.10233
1002.00000,89.91792
1004.00000,64.31969
1006.00000,48.62370
1008.00000,63.58602
1010.00000,91.70894
1012.00000,60.35120
1014.00000,57.71265
1016.00000,108.97086
1018.00000,67.50223
1020.00000,109.02167
1022.00000,203.58017
1024.00000,255.11284
1026.00000,273.49161
1028.00000,316.93304
1030.00000,354.98080
1032.00000,407.71594
1034.00000,452.59830
1036.00000,374.94217
1038.00000,304.93362
1040.00000,261.52469
1042.00000,225.62015
1044.00000,208.35721
1046.00000,166.03651
1048.00000,128.32109
1050.00000,110.72391
1052.00000,107.63055
1054.00000,118.28022
1056.00000,84.90491
1058.00000,94.94753
1060.00000,125.04656
1062.00000,50.26655
1064.00000,54.36052
1066.00000,54.40969
1068.00000,55.52842
1070.00000,114.35532
1072.00000,104.99175
1074.00000,100.05421
1076.00000,127.28950
1078.00000,139.25414
1080.00000,114.53519
1082.00000,127.17487
1084.00000,120.88439
1086.00000,95.71516
1088.00000,94.98563
1090.00000,68.43472
1092.00000,78.93705
1094.00000,105.01470
1096.00000,90.63967
1098.00000,49.87713
1100.00000,29.33099
1102.00000,39.73778
1104.00000,53.59795
1106.00000,57.51619
1108.00000,91.45959
1110.00000,131.60907
1112.00000,149.76537
1114.00000,152.02251
1116.00000,168.07104
1118.00000,199.54120
1120.00000,235.67130
1122.00000,257.26248
1124.00000,249.60573
1126.00000,230.37256
1128.00000,259.72180
1130.00000,246.82608
1132.00000,166.06354
1134.00000,179.36002
1136.00000,153.33807
1138.00000,115.13433
1140.00000,101.49595
1142.00000,82.57481
1144.00000,117.59173
1146.00000,113.43633
1148.00000,83.99388
1150.00000,91.90279
1152.00000,98.32537
1154.00000,151.39035
1156.00000,174.99275
1158.00000,153.56245
1160.00000,165.56522
1162.00000,142.84996
1164.00000,150.76662
1166.00000,184.48216
1168.00000,176.60909
1170.00000,139.46214
1172.00000,96.31040
1174.00000,74.24335
1176.00000,74.23635
1178.00000,75.58370
1180.00000,84.94693
1182.00000,75.36903
1184.00000,76.80000
1186.00000,107.03848
1188.00000,86.03674
1190.00000,96.73174
1192.00000,110.86230
1194.00000,100.12074
1196.00000,122.62934
1198.00000,128.70818
1200.00000,155.75237
1202.00000,216.11205
1204.00000,282.23297
1206.00000,373.36288
1208.00000,483.21872
1210.00000,650.15173
1212.00000,887.96710
1214.00000,1173.30371
1216.00000,1589.57495
1218.00000,1973.80872
1220.00000,2254.91797
1222.00000,2459.57935
1224.00000,2425.97632
1226.00000,2250.70142
1228.00000,1922.82227
1230.00000,1501.45178
1232.00000,1219.25940
1234.00000,899.89423
1236.00000,622.60284
1238.00000,473.20300
1240.00000,379.73581
1242.00000,315.44629
1244.00000,298.95639
1246.00000,301.91187
1248.00000,288.37524
1250.00000,272.72989
1252.00000,244.59789
1254.00000,227.08592
1256.00000,205.38019
1258.00000,146.05768
1260.00000,118.38429
1262.00000,128.05423
1264.00000,125.65849
1266.00000,96.94328
1268.00000,112.08631
1270.00000,197.00488
1272.00000,268.64551
1274.00000,295.97043
1276.00000,358.79184
1278.00000,476.07864
1280.00000,538.41705
1282.00000,565.17413
1284.00000,626.07782
1286.00000,633.92609
1288.00000,576.17889
1290.00000,505.87650
1292.00000,455.37863
1294.00000,404.28589
1296.00000,345.26895
1298.00000,276.82898
1300.00000,214.46608
1302.00000,189.02054
1304.00000,212.27373
1306.00000,208.93852
1308.00000,164.69322
1310.00000,163.56226
1312.00000,254.51585
1314.00000,246.04376
1316.00000,188.63237
1318.00000,204.36848
1320.00000,273.01343
1322.00000,247.10457
1324.00000,200.81067
1326.00000,135.62395
1328.00000,66.76839
1330.00000,91.43565
1332.00000,79.38290
1334.00000,62.83519
1336.00000,70.85915
1338.00000,54.38985
1340.00000,31.43977
1342.00000,47.97380
1344.00000,70.22514
1346.00000,60.02840
1348.00000,65.88897
1350.00000,119.73702
1352.00000,146.94728
1354.00000,137.29236
1356.00000,159.90425
1358.00000,185.25951
1360.00000,222.99532
1362.00000,233.67787
1364.00000,215.28685
1366.00000,251.97859
1368.00000,231.81442
1370.00000,208.91557
1372.00000,204.32884
1374.00000,162.42856
1376.00000,209.46770
1378.00000,166.63431
1380.00000,92.76534
1382.00000,145.42776
1384.00000,174.09596
1386.00000,174.49763
1388.00000,190.42946
1390.00000,199.43654
1392.00000,149.52641
1394.00000,123.45668
1396.00000,165.77399
1398.00000,185.70294
1400.00000,123.22054
1402.00000,110.18772
1404.00000,108.77991
1406.00000,82.20176
1408.00000,62.21160
1410.00000,86.75158
1412.00000,90.70428
1414.00000,68.64095
1416.00000,46.24993
1418.00000,37.56204
1420.00000,39.31859
1422.00000,47.47375
1424.00000,55.83636
1426.00000,63.08031
1428.00000,72.40732
1430.00000,79.50282
1432.00000,122.65614
1434.00000,203.64063
1436.00000,289.85321
1438.00000,385.39639
1440.00000,461.15912
1442.00000,593.61633
1444.00000,765.68427
1446.00000,815.35437
1448.00000,918.18872
1450.00000,997.18042
1452.00000,971.18524
1454.00000,937.68530
1456.00000,985.16937
1458.00000,1005.31299
1460.00000,969.41351
1462.00000,928.39948
1464.00000,906.20410
1466.00000,972.26385
1468.00000,1019.07159
1470.00000,983.56860
1472.00000,965.50854
1474.00000,1026.82947
1476.00000,990.31769
1478.00000,884.65533
1480.00000,803.45752
1482.00000,635.70148
1484.00000,519.65887
1486.00000,420.68329
1488.00000,308.68015
1490.00000,250.13342
1492.00000,162.88777
1494.00000,111.00102
1496.00000,100.69955
1498.00000,71.22823
1500.00000,46.03895
1502.00000,96.37471
1504.00000,131.20882
1506.00000,86.01462
1508.00000,67.82445
1510.00000,158.96494
1512.00000,146.06075
1514.00000,75.42466
1516.00000,119.00112
1518.00000,96.78377
1520.00000,70.55737
1522.00000,85.31860
1524.00000,121.65504
1526.00000,146.98102
1528.00000,113.61789
1530.00000,80.73073
1532.00000,84.31140
1534.00000,90.67393
1536.00000,76.80155
1538.00000,73.19522
1540.00000,69.01460
1542.00000,73.21233
1544.00000,121.32708
1546.00000,96.02845
1548.00000,67.84666
1550.00000,66.13568
1552.00000,46.75294
1554.00000,87.31200
1556.00000,80.86494
1558.00000,59.10785
1560.00000,91.96001
1562.00000,113.50222
1564.00000,148.82506
1566.00000,136.08484
1568.00000,99.33489
1570.00000,139.48863
1572.00000,178.02696
1574.00000,122.10398
1576.00000,83.63277
1578.00000,137.17004
1580.00000,122.01406
1582.00000,129.31383
1584.00000,158.44324
1586.00000,137.70444
1588.00000,82.28682
1590.00000,131.71225
1592.00000,149.77379
1594.00000,112.58282
1596.00000,122.72703
1598.00000,162.05087
1600.00000,136.33673
1602.00000,122.45798
1604.00000,157.22015
1606.00000,147.93515
1608.00000,130.59483
1610.00000,103.98827
1612.00000,101.81210
1614.00000,127.70666
1616.00000,95.46279
1618.00000,142.10530
1620.00000,156.47552
1622.00000,77.57158
1624.00000,81.39184
1626.00000,121.28220
1628.00000,120.09984
1630.00000,114.45204
1632.00000,145.42699
1634.00000,121.15853
1636.00000,164.10890
1638.00000,165.56010
1640.00000,103.26572
1642.00000,185.91315
1644.00000,179.12704
1646.00000,107.37502
1648.00000,80.86259
1650.00000,92.63460
1652.00000,80.51624
1654.00000,126.83390
1656.00000,120.72047
1658.00000,48.80747
1660.00000,127.59385
1662.00000,104.04404
1664.00000,90.15070
1666.00000,147.15378
1668.00000,130.07622
1670.00000,93.43973
1672.00000,106.40980
1674.00000,117.89075
1676.00000,103.60052
1678.00000,146.83376
1680.00000,118.51453
1682.00000,84.88279
1684.00000,134.80573
1686.00000,194.17932
1688.00000,136.27356
1690.00000,119.63064
1692.00000,149.93954
1694.00000,127.76353
1696.00000,111.81789
1698.00000,126.49331
1700.00000,143.88023
1702.00000,120.82653
1704.00000,103.03520
1706.00000,253.81496
1708.00000,239.65852
1710.00000,102.79056
1712.00000,101.61021
1714.00000,74.24748
1716.00000,74.79403
1718.00000,115.49880
1720.00000,129.48358
1722.00000,84.88581
1724.00000,75.44013
1726.00000,107.71009
1728.00000,116.87808
1730.00000,103.23643
1732.00000,162.64630
1734.00000,117.77013
1736.00000,127.28166
1738.00000,250.99083
1740.00000,200.59195
1742.00000,95.92584
1744.00000,124.39893
1746.00000,169.08783
1748.00000,72.25893
1750.00000,84.15787
1752.00000,103.48377
1754.00000,133.17058
1756.00000,181.60915
1758.00000,141.64232
1760.00000,168.43707
1762.00000,173.61635
1764.00000,142.71674
1766.00000,170.40247
1768.00000,151.61543
1770.00000,148.89023
1772.00000,146.15034
1774.00000,111.35476
1776.00000,118.96749
1778.00000,149.18283
1780.00000,80.54858
1782.00000,6.72383
1784.00000,120.55945
1786.00000,216.94200
1788.00000,127.10069
1790.00000,98.30125
1792.00000,208.12012
1794.00000,62.43669
1796.00000,152.05806
1798.00000,204.91881
1800.00000,131.00908
1802.00000,295.19061
1804.00000,275.89801
1806.00000,206.68814
1808.00000,239.20752
1810.00000,269.60776
1812.00000,189.53326
1814.00000,231.00082
1816.00000,220.57759
1818.00000,146.13582
1820.00000,280.52405
1822.00000,288.05020
1824.00000,211.01743
1826.00000,214.42244
1828.00000,265.09140
1830.00000,191.93129
1832.00000,237.25507
1834.00000,264.64142
1836.00000,176.72734
1838.00000,187.98947
1840.00000,169.35452
1842.00000,164.07423
1844.00000,156.34247
1846.00000,120.87321
1848.00000,215.12283
1850.00000,226.41623
1852.00000,210.80978
1854.00000,200.77504
1856.00000,53.96442
1858.00000,137.68301
1860.00000,118.61661
1862.00000,30.89893
1864.00000,196.69415
1866.00000,169.27936
1868.00000,107.41441
1870.00000,97.86906
1872.00000,73.99493
1874.00000,46.44928
1876.00000,36.24870
1878.00000,117.11909
1880.00000,172.72453
1882.00000,113.46257
1884.00000,263.19168
1886.00000,256.31485
1888.00000,223.88289
1890.00000,313.64282
1892.00000,148.24803
1894.00000,310.90854
1896.00000,384.67798
1898.00000,238.09961
1900.00000,329.63681
1902.00000,215.66135
1904.00000,166.94830
1906.00000,248.56194
1908.00000,255.11174
1910.00000,238.91415
1912.00000,337.88217
1914.00000,393.91653
1916.00000,314.44601
1918.00000,271.95132
1920.00000,339.62741
1922.00000,256.70181
1924.00000,169.88138
1926.00000,251.04948
1928.00000,136.20117
1930.00000,200.42526
1932.00000,159.39896
1934.00000,73.18404
1936.00000,412.07458
1938.00000,150.28667
1940.00000,164.97412
1942.00000,431.01511
1944.00000,215.14064
1946.00000,235.69307
1948.00000,213.24745
1950.00000,100.24200
1952.00000,90.37168
1954.00000,176.04002
1956.00000,227.66620
1958.00000,238.91588
1960.00000,223.09399
1962.00000,169.64949
1964.00000,111.52187
1966.00000,113.32986
1968.00000,205.21544
1970.00000,271.33139
1972.00000,170.74193
1974.00000,158.53784
1976.00000,186.06451
1978.00000,170.23750
1980.00000,176.77097
1982.00000,240.35956
1984.00000,258.08823
1986.00000,265.98965
1988.00000,262.12796
1990.00000,129.56409
1992.00000,161.20366
1994.00000,228.53020
1996.00000,194.28247
1998.00000,172.12379
2000.00000,258.46106
2002.00000,273.54535
2004.00000,213.74806
2006.00000,129.31259
2008.00000,147.63605
2010.00000,187.06308
2012.00000,155.32233
2014.00000,100.32922
2016.00000,143.83403
2018.00000,120.44376
2020.00000,81.10584
2022.00000,112.55169
2024.00000,72.27640
2026.00000,123.82274
2028.00000,172.01674
2030.00000,124.63372
2032.00000,106.75439
2034.00000,91.18014
2036.00000,80.51757
2038.00000,76.37066
2040.00000,75.20804
2042.00000,117.45765
2044.00000,126.63543
2046.00000,93.86845
2048.00000,80.59340
2050.00000,85.97737
2052.00000,67.04301
2054.00000,55.24799
2056.00000,79.42774
2058.00000,85.83026
2060.00000,59.76078
2062.00000,34.26671
2064.00000,52.18208
2066.00000,107.92490
2068.00000,111.78031
2070.00000,69.75428
2072.00000,70.05968
2074.00000,135.30377
2076.00000,112.24097
2078.00000,60.14140
2080.00000,75.44535
2082.00000,139.79591
2084.00000,131.91640
2086.00000,78.85691
2088.00000,83.14603
2090.00000,121.71745
2092.00000,67.32729
2094.00000,90.04331
2096.00000,98.76194
2098.00000,61.98050
2100.00000,100.77750
2102.00000,89.80951
2104.00000,64.64232
2106.00000,79.75476
2108.00000,106.76366
2110.00000,88.67324
2112.00000,63.02173
2114.00000,58.93055
2116.00000,70.21177
2118.00000,81.74957
2120.00000,80.86116
2122.00000,77.45264
2124.00000,86.58312
2126.00000,95.77119
2128.00000,57.75954
2130.00000,51.59478
2132.00000,90.86758
2134.00000,107.70067
2136.00000,143.96019
2138.00000,123.52454
2140.00000,67.16745
2142.00000,64.50729
2144.00000,88.16577
2146.00000,85.50884
2148.00000,90.53407
2150.00000,112.06418
2152.00000,75.77359
2154.00000,72.37916
2156.00000,101.64294
2158.00000,98.78592
2160.00000,64.09409
2162.00000,114.97434
2164.00000,131.30276
2166.00000,98.01640
2168.00000,133.03302
2170.00000,167.74455
2172.00000,133.31317
2174.00000,102.61284
2176.00000,140.84840
2178.00000,140.70920
2180.00000,107.99648
2182.00000,73.51006
2184.00000,61.04994
2186.00000,82.17207
2188.00000,104.21047
2190.00000,67.78207
2192.00000,29.70131
2194.00000,84.34002
2196.00000,84.76633
2198.00000,65.59213
2200.00000,90.69287
2202.00000,131.69992
2204.00000,115.10215
2206.00000,93.88828
2208.00000,100.89996
2210.00000,109.81162
2212.00000,88.20623
2214.00000,60.34090
2216.00000,83.72379
2218.00000,122.87135
2220.00000,82.50929
2222.00000,80.45868
2224.00000,86.15156
2226.00000,76.30192
2228.00000,87.03441
2230.00000,67.83582
2232.00000,95.04306
2234.00000,115.63328
2236.00000,60.43141
2238.00000,81.90985
2240.00000,125.77656
2242.00000,146.53960
2244.00000,161.46707
2246.00000,180.07512
2248.00000,149.58044
2250.00000,106.85658
2252.00000,112.01891
2254.00000,146.65643
2256.00000,118.96532
2258.00000,116.63441
2260.00000,155.50218
2262.00000,145.46754
2264.00000,114.47371
2266.00000,124.03229
2268.00000,136.19386
2270.00000,105.24429
2272.00000,101.99866
2274.00000,118.20708
2276.00000,125.47276
2278.00000,121.45189
2280.00000,127.20541
2282.00000,132.87138
2284.00000,112.18784
2286.00000,88.90736
2288.00000,112.67976
2290.00000,141.68265
2292.00000,155.40968
2294.00000,138.18802
2296.00000,100.98487
2298.00000,111.19522
2300.00000,144.27299
2302.00000,114.24960
2304.00000,43.35638
2306.00000,87.91419
2308.00000,112.55946
2310.00000,109.68127
2312.00000,103.65646
2314.00000,53.41594
2316.00000,67.30636
2318.00000,111.00429
2320.00000,130.55630
2322.00000,136.56177
2324.00000,134.40131
2326.00000,148.32091
2328.00000,163.54408
2330.00000,149.34927
2332.00000,123.66507
2334.00000,112.26550
2336.00000,104.40976
2338.00000,97.46379
2340.00000,118.99333
2342.00000,121.71770
2344.00000,81.88551
2346.00000,40.47150
2348.00000,53.09792
2350.00000,74.73271
2352.00000,65.45580
2354.00000,56.04603
2356.00000,86.82728
2358.00000,98.31760
2360.00000,94.18945
2362.00000,108.91902
2364.00000,137.01485
2366.00000,122.64045
2368.00000,111.97173
2370.00000,107.98002
2372.00000,100.78121
2374.00000,109.89654
2376.00000,98.14745
2378.00000,94.95378
2380.00000,132.22092
2382.00000,165.46077
2384.00000,103.58042
2386.00000,79.68842
2388.00000,118.85317
2390.00000,115.01492
2392.00000,94.48083
2394.00000,137.60738
2396.00000,191.27672
2398.00000,165.46184
2400.00000,106.78236
2402.00000,117.44505
2404.00000,152.37054
2406.00000,152.00769
2408.00000,137.70140
2410.00000,74.20151
2412.00000,104.69237
2414.00000,159.88782
2416.00000,66.78143
2418.00000,111.30056
2420.00000,149.20680
2422.00000,114.44623
2424.00000,118.26331
2426.00000,147.84932
2428.00000,130.76935
2430.00000,97.93307
2432.00000,115.99012
2434.00000,167.55414
2436.00000,189.80092
2438.00000,156.01910
2440.00000,116.80162
2442.00000,136.96289
2444.00000,147.35318
2446.00000,122.58846
2448.00000,130.10031
2450.00000,183.50659
2452.00000,106.52281
2454.00000,77.77781
2456.00000,130.86905
2458.00000,151.76488
2460.00000,153.96465
2462.00000,107.30772
2464.00000,90.68320
2466.00000,124.94449
2468.00000,101.22253
2470.00000,125.61620
2472.00000,190.12407
2474.00000,196.62895
2476.00000,122.78401
2478.00000,126.51788
2480.00000,165.55077
2482.00000,161.34624
2484.00000,121.83949
2486.00000,107.17561
2488.00000,116.37400
2490.00000,105.70422
2492.00000,84.94920
2494.00000,127.60821
2496.00000,123.11324
2498.00000,76.42639
2500.00000,65.81081
2502.00000,94.08798
2504.00000,61.33215
2506.00000,24.47568
2508.00000,69.45741
2510.00000,147.53442
2512.00000,94.10364
2514.00000,98.60352
2516.00000,155.91473
2518.00000,108.69005
2520.00000,65.15639
2522.00000,99.66713
2524.00000,113.94713
2526.00000,60.96632
2528.00000,81.38786
2530.00000,119.44418
2532.00000,146.19809
2534.00000,128.63724
2536.00000,52.31995
2538.00000,84.64633
2540.00000,134.89565
2542.00000,110.96204
2544.00000,86.79508
2546.00000,159.92473
2548.00000,137.43904
2550.00000,83.28158
2552.00000,166.85370
2554.00000,229.92677
2556.00000,163.35002
2558.00000,152.33743
2560.00000,221.38019
2562.00000,96.44069
2564.00000,78.88827
2566.00000,162.97797
2568.00000,208.66092
2570.00000,206.74583
2572.00000,195.75262
2574.00000,176.06956
2576.00000,152.77716
2578.00000,150.70010
2580.00000,180.74080
2582.00000,206.09085
2584.00000,183.85300
2586.00000,140.48225
2588.00000,162.83769
2590.00000,172.66750
2592.00000,125.60694
2594.00000,99.01868
2596.00000,171.10281
2598.00000,152.38077
2600.00000,105.52421
2602.00000,112.61037
2604.00000,128.81509
2606.00000,141.76787
2608.00000,147.32205
2610.00000,152.69421
2612.00000,158.56441
2614.00000,149.37755
2616.00000,166.39644
2618.00000,156.33836
2620.00000,86.31041
2622.00000,68.18321
2624.00000,158.10867
2626.00000,179.02689
2628.00000,92.13268
2630.00000,89.22520
2632.00000,103.47565
2634.00000,115.52345
2636.00000,124.40640
2638.00000,121.13347
2640.00000,126.94044
2642.00000,114.87186
2644.00000,156.21045
2646.00000,232.03856
2648.00000,122.24062
2650.00000,125.07654
2652.00000,149.03099
2654.00000,81.20805
2656.00000,153.45100
2658.00000,173.08855
2660.00000,135.52838
2662.00000,115.36350
2664.00000,108.54597
2666.00000,114.38550
2668.00000,77.69672
2670.00000,51.95253
2672.00000,91.47600
2674.00000,52.92392
2676.00000,73.60154
2678.00000,164.19609
2680.00000,189.93991
2682.00000,111.18472
2684.00000,72.65746
2686.00000,110.46359
2688.00000,158.00850
2690.00000,167.62228
2692.00000,175.27550
2694.00000,141.98645
2696.00000,85.72845
2698.00000,87.10837
2700.00000,105.71940
2702.00000,69.16571
2704.00000,44.52729
2706.00000,86.79417
2708.00000,52.38460
2710.00000,98.16414
2712.00000,181.37386
2714.00000,172.56116
2716.00000,158.96590
2718.00000,281.24609
2720.00000,345.82108
2722.00000,271.63586
2724.00000,288.50107
2726.00000,393.21207
2728.00000,386.84793
2730.00000,307.65247
2732.00000,323.98834
2734.00000,264.36819
2736.00000,265.75430
2738.00000,309.75723
2740.00000,302.82574
2742.00000,353.25885
2744.00000,263.92459
2746.00000,188.81378
2748.00000,237.80898
2750.00000,165.05447
2752.00000,126.84763
2754.00000,65.89276
2756.00000,13.34341
2758.00000,115.49576
2760.00000,103.75477
2762.00000,35.58434
2764.00000,32.30025
2766.00000,68.60528
2768.00000,52.21778
2770.00000,61.14529
2772.00000,76.95806
2774.00000,70.48164
2776.00000,132.63527
2778.00000,139.01402
2780.00000,159.57047
2782.00000,233.71487
2784.00000,223.18629
2786.00000,205.80661
2788.00000,220.48578
2790.00000,249.04422
2792.00000,245.08539
2794.00000,175.30110
2796.00000,238.26479
2798.00000,302.65576
2800.00000,202.05008
2802.00000,278.26056
2804.00000,268.25333
2806.00000,256.46442
2808.00000,384.28961
2810.00000,395.74591
2812.00000,451.93707
2814.00000,505.29102
2816.00000,532.80682
2818.00000,638.02850
2820.00000,615.45105
2822.00000,695.95081
2824.00000,880.72021
2826.00000,919.76538
2828.00000,1003.80920
2830.00000,1144.11243
2832.00000,1241.78040
2834.00000,1287.76648
2836.00000,1417.25269
2838.00000,1556.19543
2840.00000,1673.99048
2842.00000,1761.33435
2844.00000,1761.71973
2846.00000,1705.75183
2848.00000,1676.68347
2850.00000,1671.21033
2852.00000,1608.19580
2854.00000,1520.46338
2856.00000,1436.98657
2858.00000,1304.01892
2860.00000,1112.23218
2862.00000,1019.78119
2864.00000,854.65137
2866.00000,693.41614
2868.00000,649.40637
2870.00000,508.43237
2872.00000,369.22653
2874.00000,372.54880
2876.00000,451.68216
2878.00000,426.37000
2880.00000,468.41394
2882.00000,461.41931
2884.00000,480.65414
2886.00000,719.60858
2888.00000,779.86603
2890.00000,861.71454
2892.00000,1025.35706
2894.00000,1066.16138
2896.00000,1033.40710
2898.00000,1236.53003
2900.00000,1398.44202
2902.00000,1359.24939
2904.00000,1599.90906
2906.00000,1668.93848
2908.00000,1584.57104
2910.00000,1590.53906
2912.00000,1645.61133
2914.00000,1595.50134
2916.00000,1683.41162
2918.00000,1783.67273
2920.00000,1629.35229
2922.00000,1761.92493
2924.00000,1882.98987
2926.00000,1929.53857
2928.00000,2089.94946
2930.00000,2188.79272
2932.00000,2251.60132
2934.00000,2377.75952
2936.00000,2499.78833
2938.00000,2440.51318
2940.00000,2465.19897
2942.00000,2664.17896
2944.00000,2838.19678
2946.00000,2871.14404
2948.00000,3185.43970
2950.00000,3398.91797
2952.00000,3459.29175
2954.00000,3685.15796
2956.00000,3796.60278
2958.00000,3709.84814
2960.00000,3681.54053
2962.00000,3824.89722
2964.00000,3800.51636
2966.00000,3683.15332
2968.00000,3471.36304
2970.00000,3251.46997
2972.00000,3202.61865
2974.00000,2986.97070
2976.00000,2819.38159
2978.00000,2720.50000
2980.00000,2428.22144
2982.00000,2292.11255
2984.00000,2144.59204
2986.00000,1961.88037
2988.00000,1879.94629
2990.00000,1745.47253
2992.00000,1691.56055
2994.00000,1700.54065
2996.00000,1631.02393
2998.00000,1470.35010
3000.00000,1350.13940
3002.00000,1277.63635
3004.00000,1238.62952
3006.00000,1246.89319
3008.00000,1193.31750
3010.00000,1270.85645
3012.00000,1260.85767
3014.00000,936.69788
3016.00000,1075.89490
3018.00000,981.96216
3020.00000,768.67773
3022.00000,984.53589
3024.00000,1005.96851
3026.00000,792.77319
3028.00000,672.06732
3030.00000,699.36652
3032.00000,551.22412
3034.00000,482.70526
3036.00000,632.78326
3038.00000,669.55688
3040.00000,336.82224
3042.00000,444.65088
3044.00000,591.66711
3046.00000,352.25449
3048.00000,113.42084
3050.00000,477.97229
3052.00000,327.74924
3054.00000,-21.33188
3056.00000,188.13333
3058.00000,128.66779
3060.00000,91.45542
3062.00000,127.38203
3064.00000,136.84329
3066.00000,207.29182
3068.00000,175.59393
3070.00000,172.96237
3072.00000,199.04823
3074.00000,106.68130
3076.00000,153.07758
3078.00000,262.90796
3080.00000,312.51086
3082.00000,278.92685
3084.00000,193.46706
3086.00000,271.80737
3088.00000,312.51794
3090.00000,242.72827
3092.00000,476.68570
3094.00000,559.11060
3096.00000,333.01434
3098.00000,183.23991
3100.00000,392.52176
3102.00000,233.31099
3104.00000,163.17737
3106.00000,325.68008
3108.00000,264.02109
3110.00000,264.17163
3112.00000,111.74454
3114.00000,33.86236
3116.00000,273.55203
3118.00000,313.36011
3120.00000,480.11105
3122.00000,367.91226
3124.00000,0.21772
3126.00000,324.22763
3128.00000,180.99287
3130.00000,9.58770
3132.00000,273.37436
3134.00000,370.88956
3136.00000,321.05365
3138.00000,299.17596
3140.00000,217.47945
3142.00000,60.86156
3144.00000,309.50439
3146.00000,348.18243
3148.00000,188.14693
3150.00000,334.97327
3152.00000,606.95587
3154.00000,206.60866
3156.00000,146.43625
3158.00000,697.99518
3160.00000,427.98355
3162.00000,646.50287
3164.00000,734.68976
3166.00000,389.34277
3168.00000,506.10599
3170.00000,720.61206
3172.00000,896.59821
3174.00000,812.87115
3176.00000,529.20837
3178.00000,729.81055
3180.00000,437.28128
3182.00000,288.37512
3184.00000,798.10883
3186.00000,554.12140
3188.00000,596.12115
3190.00000,714.01465
3192.00000,565.24384
3194.00000,727.31549
3196.00000,923.49750
3198.00000,915.01404
3200.00000,803.46948
