300.00000,1644.76782
302.00000,1434.64832
304.00000,1192.87390
306.00000,998.79938
308.00000,828.16022
310.00000,691.81830
312.00000,595.37396
314.00000,467.49319
316.00000,391.76691
318.00000,315.97949
320.00000,288.02536
322.00000,425.42209
324.00000,414.62170
326.00000,379.97302
328.00000,407.90530
330.00000,415.53870
332.00000,412.39642
334.00000,385.48187
336.00000,367.15167
338.00000,329.35312
340.00000,234.38145
342.00000,325.03806
344.00000,480.20221
346.00000,616.15161
348.00000,810.20905
350.00000,1041.33765
352.00000,1274.20349
354.00000,1467.53577
356.00000,1554.31714
358.00000,1491.46716
360.00000,1393.16589
362.00000,1280.89563
364.00000,1147.62561
366.00000,988.69238
368.00000,769.45581
370.00000,594.87970
372.00000,511.74185
374.00000,474.72812
376.00000,435.90662
378.00000,414.96823
380.00000,362.71750
382.00000,283.70682
384.00000,263.63095
386.00000,304.63486
388.00000,236.58336
390.00000,179.89766
392.00000,203.76231
394.00000,65.23080
396.00000,124.20606
398.00000,185.51414
400.00000,123.15350
402.00000,150.93880
404.00000,121.50031
406.00000,117.55331
408.00000,164.46063
410.00000,152.12698
412.00000,44.85687
414.00000,72.18703
416.00000,154.56694
418.00000,178.30252
420.00000,209.40468
422.00000,220.69658
424.00000,200.50600
426.00000,158.34792
428.00000,140.71638
430.00000,206.49461
432.00000,247.39575
434.00000,211.01624
436.00000,175.59875
438.00000,215.13176
440.00000,180.43965
442.00000,135.45125
444.00000,132.49028
446.00000,161.18369
448.00000,262.69241
450.00000,320.12238
452.00000,340.50623
454.00000,407.33679
456.00000,508.91690
458.00000,524.16510
460.00000,554.92761
462.00000,600.99615
464.00000,571.07013
466.00000,569.11792
468.00000,511.65802
470.00000,420.30972
472.00000,367.44836
474.00000,342.86642
476.00000,369.66602
478.00000,345.82382
480.00000,272.47177
482.00000,250.84166
484.00000,242.18750
486.00000,301.60400
488.00000,351.10550
490.00000,327.31497
492.00000,330.23434
494.00000,293.38760
496.00000,269.56790
498.00000,268.63235
500.00000,229.10065
502.00000,225.25783
504.00000,220.26370
506.00000,197.12224
508.00000,175.41806
510.00000,155.25821
512.00000,155.58452
514.00000,138.01050
516.00000,98.59576
518.00000,80.25425
520.00000,60.52586
522.00000,118.48297
524.00000,217.50185
526.00000,247.79825
528.00000,246.27553
530.00000,372.09222
532.00000,290.85712
534.00000,166.00403
536.00000,513.35052
538.00000,365.57816
540.00000,274.51633
542.00000,353.72101
544.00000,184.80084
546.00000,163.77382
548.00000,172.51447
550.00000,162.83777
552.00000,163.34927
554.00000,145.83614
556.00000,174.07553
558.00000,140.04027
560.00000,91.85796
562.00000,181.17789
564.00000,322.24365
566.00000,450.31134
568.00000,555.42426
570.00000,630.98810
572.00000,671.22650
574.00000,745.73004
576.00000,731.46832
578.00000,637.82367
580.00000,599.10614
582.00000,554.13397
584.00000,563.41315
586.00000,598.82574
588.00000,598.42303
590.00000,579.69141
592.00000,518.87201
594.00000,457.22595
596.00000,429.02109
598.00000,416.22498
600.00000,395.91299
602.00000,375.33591
604.00000,360.72028
606.00000,349.60849
608.00000,341.77585
610.00000,341.29596
612.00000,326.53073
614.00000,301.06982
616.00000,298.56161
618.00000,312.72675
620.00000,310.27325
622.00000,285.11356
624.00000,258.54807
626.00000,250.07239
628.00000,270.37411
630.00000,271.49707
632.00000,238.05940
634.00000,215.98897
636.00000,207.99548
638.00000,209.34045
640.00000,198.60451
642.00000,167.79277
644.00000,153.89296
646.00000,167.91420
648.00000,164.67700
650.00000,141.05823
652.00000,152.66397
654.00000,167.90405
656.00000,166.02658
658.00000,216.31491
660.00000,360.51859
662.00000,479.20810
664.00000,577.65973
666.00000,671.94153
668.00000,711.31439
670.00000,649.00031
672.00000,611.80695
674.00000,542.65497
676.00000,444.76718
678.00000,406.64191
680.00000,383.67209
682.00000,364.83322
684.00000,345.34930
686.00000,315.49271
688.00000,276.62683
690.00000,254.73666
692.00000,252.16153
694.00000,249.05016
696.00000,238.53625
698.00000,240.70433
700.00000,184.03122
702.00000,133.50952
704.00000,147.04968
706.00000,134.08965
708.00000,156.36101
710.00000,88.02927
712.00000,20.96529
714.00000,163.78915
716.00000,223.98396
718.00000,320.63620
720.00000,476.47482
722.00000,618.49384
724.00000,827.86676
726.00000,1063.36731
728.00000,1308.84741
730.00000,1555.61792
732.00000,1783.84009
734.00000,2017.48926
736.00000,2277.69775
738.00000,2523.47412
740.00000,2690.83594
742.00000,2786.74658
744.00000,2911.59863
746.00000,3034.25464
748.00000,3063.90698
750.00000,2979.00073
752.00000,2831.04639
754.00000,2609.49219
756.00000,2343.51685
758.00000,2071.79199
760.00000,1758.27368
762.00000,1459.06396
764.00000,1216.94031
766.00000,1016.99506
768.00000,830.61060
770.00000,699.60138
772.00000,603.34033
774.00000,530.66791
776.00000,503.82944
778.00000,510.65408
780.00000,452.85593
782.00000,368.43381
784.00000,331.65323
786.00000,319.16116
788.00000,310.17648
790.00000,274.75757
792.00000,220.95325
794.00000,197.04230
796.00000,222.63918
798.00000,212.35896
800.00000,173.15068
802.00000,162.01241
804.00000,169.45477
806.00000,160.21733
808.00000,138.95042
810.00000,116.53006
812.00000,124.29488
814.00000,247.72095
816.00000,417.24896
818.00000,596.51379
820.00000,853.82227
822.00000,1273.21729
824.00000,1786.47437
826.00000,2318.91113
828.00000,2749.36353
830.00000,2930.68188
832.00000,2840.76636
834.00000,2570.58057
836.00000,2209.28101
838.00000,1831.11914
840.00000,1526.22900
842.00000,1343.19482
844.00000,1231.12207
846.00000,1135.11682
848.00000,1058.86914
850.00000,1004.71149
852.00000,924.17218
854.00000,882.94952
856.00000,926.24951
858.00000,920.08307
860.00000,969.55640
862.00000,1039.41357
864.00000,1131.26123
866.00000,1301.88501
868.00000,1257.95764
870.00000,1169.18896
872.00000,1041.83887
874.00000,764.78748
876.00000,591.83893
878.00000,437.12875
880.00000,330.29443
882.00000,313.35513
884.00000,280.26266
886.00000,231.79446
888.00000,249.63065
890.00000,299.42889
892.00000,296.49625
894.00000,314.14957
896.00000,340.11929
898.00000,385.58987
900.00000,436.81290
902.00000,421.79111
904.00000,375.55283
906.00000,350.92474
908.00000,363.54102
910.00000,371.56171
912.00000,311.85446
914.00000,254.91501
916.00000,241.55762
918.00000,252.87531
920.00000,260.98209
922.00000,241.26367
924.00000,238.39763
926.00000,264.71912
928.00000,267.27271
930.00000,222.54984
932.00000,163.55806
934.00000,131.18716
936.00000,131.87634
938.00000,137.69136
940.00000,147.10030
942.00000,126.77319
944.00000,124.37445
946.00000,189.56998
948.00000,143.16318
950.00000,149.09941
952.00000,209.24094
954.00000,214.59688
956.00000,262.24609
958.00000,293.76007
960.00000,318.36340
962.00000,375.32944
964.00000,420.75674
966.00000,351.88135
968.00000,328.86829
970.00000,326.77725
972.00000,231.80566
974.00000,199.09491
976.00000,186.25345
978.00000,166.19069
980.00000,152.57127
982.00000,151.21564
984.00000,168.53888
986.00000,156.45297
988.00000,127.05514
990.00000,131.05215
992.00000,137.95375
994.00000,112.14161
996.00000,106.72972
998.00000,105.82227
1000.00000,26.76747
1002.00000,75.58519
1004.00000,120.66560
1006.00000,87.27860
1008.00000,77.05738
1010.00000,70.03094
1012.00000,98.95480
1014.00000,121.41068
1016.00000,109.66676
1018.00000,137.79617
1020.00000,201.14612
1022.00000,239.34837
1024.00000,278.35794
1026.00000,361.00424
1028.00000,364.41412
1030.00000,387.18817
1032.00000,410.12704
1034.00000,381.24796
1036.00000,391.23859
1038.00000,381.09116
1040.00000,361.56921
1042.00000,327.31082
1044.00000,252.34010
1046.00000,227.03300
1048.00000,173.50983
1050.00000,111.08405
1052.00000,125.18930
1054.00000,172.83807
1056.00000,160.42490
1058.00000,125.18432
1060.00000,122.46231
1062.00000,128.91359
1064.00000,118.26233
1066.00000,131.14906
1068.00000,153.94327
1070.00000,146.34969
1072.00000,138.87085
1074.00000,143.52847
1076.00000,141.04347
1078.00000,137.82365
1080.00000,159.75880
1082.00000,158.73430
1084.00000,166.95139
1086.00000,170.17558
1088.00000,127.55711
1090.00000,96.39724
1092.00000,125.35236
1094.00000,118.63366
1096.00000,61.11227
1098.00000,86.37451
1100.00000,102.48203
1102.00000,81.71070
1104.00000,80.00003
1106.00000,140.08810
1108.00000,201.91125
1110.00000,176.30379
1112.00000,170.80873
1114.00000,253.70734
1116.00000,277.13391
1118.00000,224.08345
1120.00000,176.68599
1122.00000,194.88490
1124.00000,254.02632
1126.00000,279.39120
1128.00000,259.28296
1130.00000,267.50577
1132.00000,299.09329
1134.00000,244.43280
1136.00000,251.13461
1138.00000,230.08533
1140.00000,151.28998
1142.00000,128.48682
1144.00000,94.94934
1146.00000,77.49382
1148.00000,117.94894
1150.00000,173.30627
1152.00000,153.84850
1154.00000,159.22466
1156.00000,178.57254
1158.00000,212.09695
1160.00000,288.42917
1162.00000,272.39804
1164.00000,271.16351
1166.00000,272.66611
1168.00000,195.52231
1170.00000,140.07057
1172.00000,146.14023
1174.00000,167.07471
1176.00000,152.43730
1178.00000,107.79679
1180.00000,72.19848
1182.00000,70.18266
1184.00000,92.06307
1186.00000,102.84859
1188.00000,78.01360
1190.00000,56.40585
1192.00000,85.74249
1194.00000,147.34189
1196.00000,184.69954
1198.00000,245.54245
1200.00000,282.24686
1202.00000,297.93845
1204.00000,359.51431
1206.00000,470.64066
1208.00000,617.86841
1210.00000,817.42688
1212.00000,1120.17358
1214.00000,1547.03979
1216.00000,2000.95703
1218.00000,2581.51440
1220.00000,3103.18945
1222.00000,3291.25830
1224.00000,3415.73730
1226.00000,3403.61182
1228.00000,3085.64819
1230.00000,2548.28247
1232.00000,2093.17773
1234.00000,1639.95422
1236.00000,1267.67053
1238.00000,995.99854
1240.00000,748.08240
1242.00000,627.47937
1244.00000,583.52991
1246.00000,520.53729
1248.00000,442.52768
1250.00000,427.42703
1252.00000,352.91019
1254.00000,262.06091
1256.00000,240.05035
1258.00000,264.85526
1260.00000,259.26807
1262.00000,215.64247
1264.00000,166.78242
1266.00000,165.60930
1268.00000,233.96169
1270.00000,239.79910
1272.00000,319.44962
1274.00000,479.16306
1276.00000,535.35156
1278.00000,681.42371
1280.00000,782.90143
1282.00000,810.45612
1284.00000,858.59192
1286.00000,852.68384
1288.00000,738.62097
1290.00000,619.09467
1292.00000,545.09155
1294.00000,448.21237
1296.00000,398.43231
1298.00000,356.36584
1300.00000,313.27875
1302.00000,304.98862
1304.00000,293.69305
1306.00000,218.12601
1308.00000,171.61530
1310.00000,211.26715
1312.00000,239.07114
1314.00000,253.49078
1316.00000,312.42868
1318.00000,344.36725
1320.00000,279.61063
1322.00000,287.69388
1324.00000,308.29684
1326.00000,237.64107
1328.00000,135.55598
1330.00000,153.60529
1332.00000,131.93132
1334.00000,75.05947
1336.00000,49.53444
1338.00000,62.45317
1340.00000,94.82913
1342.00000,111.33098
1344.00000,144.01331
1346.00000,187.94980
1348.00000,165.74344
1350.00000,190.32420
1352.00000,205.97702
1354.00000,205.60988
1356.00000,259.93927
1358.00000,262.01224
1360.00000,289.71353
1362.00000,360.71033
1364.00000,397.38101
1366.00000,369.39157
1368.00000,355.07153
1370.00000,341.29782
1372.00000,291.04025
1374.00000,218.84036
1376.00000,160.51604
1378.00000,180.93869
1380.00000,215.23466
1382.00000,189.96915
1384.00000,192.11594
1386.00000,219.64658
1388.00000,229.15584
1390.00000,210.94679
1392.00000,193.36206
1394.00000,170.32741
1396.00000,141.50043
1398.00000,152.45805
1400.00000,191.90405
1402.00000,144.75902
1404.00000,153.25691
1406.00000,162.02408
1408.00000,120.75295
1410.00000,130.63585
1412.00000,102.11874
1414.00000,63.75473
1416.00000,60.13741
1418.00000,77.30990
1420.00000,82.18269
1422.00000,57.99892
1424.00000,58.82215
1426.00000,83.30366
1428.00000,56.52921
1430.00000,78.81597
1432.00000,147.64792
1434.00000,201.30840
1436.00000,222.32988
1438.00000,272.21579
1440.00000,396.36630
1442.00000,593.83032
1444.00000,790.10950
1446.00000,887.22430
1448.00000,932.07428
1450.00000,954.38220
1452.00000,964.77649
1454.00000,948.77405
1456.00000,863.33221
1458.00000,855.50891
1460.00000,898.79559
1462.00000,882.43646
1464.00000,857.12347
1466.00000,900.12640
1468.00000,920.75873
1470.00000,922.95630
1472.00000,980.37671
1474.00000,915.60663
1476.00000,934.28784
1478.00000,948.60400
1480.00000,784.25995
1482.00000,652.30762
1484.00000,529.13611
1486.00000,379.12067
1488.00000,232.80164
1490.00000,139.55779
1492.00000,89.92023
1494.00000,65.02898
1496.00000,55.53610
1498.00000,55.64341
1500.00000,61.20271
1502.00000,97.68854
1504.00000,111.20100
1506.00000,96.28977
1508.00000,113.19720
1510.00000,78.52182
1512.00000,52.13023
1514.00000,82.62315
1516.00000,108.19994
1518.00000,63.33996
1520.00000,134.81891
1522.00000,172.98485
1524.00000,83.99241
1526.00000,84.00544
1528.00000,75.94772
1530.00000,73.93120
1532.00000,56.91217
1534.00000,22.21561
1536.00000,138.63599
1538.00000,196.57043
1540.00000,134.42551
1542.00000,87.49493
1544.00000,139.49222
1546.00000,163.44051
1548.00000,102.55038
1550.00000,83.97567
1552.00000,172.88818
1554.00000,109.28752
1556.00000,80.60007
1558.00000,147.02299
1560.00000,163.00046
1562.00000,90.01968
1564.00000,177.31161
1566.00000,215.72295
1568.00000,126.87070
1570.00000,125.73423
1572.00000,134.92441
1574.00000,147.89452
1576.00000,132.04257
1578.00000,139.66217
1580.00000,276.67914
1582.00000,137.53387
1584.00000,84.04067
1586.00000,207.60205
1588.00000,91.32221
1590.00000,108.73673
1592.00000,156.21564
1594.00000,153.75099
1596.00000,155.41876
1598.00000,122.22330
1600.00000,124.82687
1602.00000,113.99576
1604.00000,88.07268
1606.00000,111.70749
1608.00000,47.54101
1610.00000,86.66135
1612.00000,167.76292
1614.00000,126.63063
1616.00000,161.75984
1618.00000,140.97047
1620.00000,94.72699
1622.00000,109.98914
1624.00000,123.20256
1626.00000,72.03756
1628.00000,121.26424
1630.00000,197.26823
1632.00000,147.72208
1634.00000,185.18904
1636.00000,159.92584
1638.00000,145.11848
1640.00000,200.18576
1642.00000,176.92230
1644.00000,248.20421
1646.00000,263.59439
1648.00000,225.57791
1650.00000,247.04474
1652.00000,98.73632
1654.00000,50.86868
1656.00000,140.94394
1658.00000,158.62013
1660.00000,56.23866
1662.00000,94.87397
1664.00000,156.99452
1666.00000,133.05794
1668.00000,134.55978
1670.00000,194.55193
1672.00000,128.42902
1674.00000,82.16527
1676.00000,175.06352
1678.00000,135.18777
1680.00000,84.03722
1682.00000,115.62287
1684.00000,198.44012
1686.00000,231.52444
1688.00000,151.02878
1690.00000,133.70158
1692.00000,120.51223
1694.00000,46.71664
1696.00000,126.04272
1698.00000,111.31035
1700.00000,98.52218
1702.00000,169.23506
1704.00000,167.79251
1706.00000,149.79013
1708.00000,131.10501
1710.00000,112.39861
1712.00000,119.46513
1714.00000,181.91560
1716.00000,247.75650
1718.00000,204.08803
1720.00000,105.91822
1722.00000,132.33871
1724.00000,162.51160
1726.00000,161.49626
1728.00000,117.39803
1730.00000,72.42262
1732.00000,148.43399
1734.00000,148.32338
1736.00000,250.73888
1738.00000,423.12952
1740.00000,280.59006
1742.00000,289.64130
1744.00000,252.38206
1746.00000,165.22839
1748.00000,275.07770
1750.00000,316.98218
1752.00000,320.57861
1754.00000,318.06683
1756.00000,277.44601
1758.00000,208.68813
1760.00000,204.67294
1762.00000,272.45190
1764.00000,293.13385
1766.00000,236.62097
1768.00000,339.69391
1770.00000,396.61176
1772.00000,311.54846
1774.00000,271.46292
1776.00000,397.64832
1778.00000,236.88390
1780.00000,165.28394
1782.00000,286.00742
1784.00000,207.48045
1786.00000,209.36424
1788.00000,249.01126
1790.00000,202.38190
1792.00000,131.90546
1794.00000,200.17239
1796.00000,181.77567
1798.00000,104.77981
1800.00000,168.47054
1802.00000,328.11810
1804.00000,164.72433
1806.00000,220.93120
1808.00000,290.42542
1810.00000,8.94038
1812.00000,62.66448
1814.00000,167.21480
1816.00000,171.51271
1818.00000,155.02348
1820.00000,157.07452
1822.00000,136.28848
1824.00000,103.08685
1826.00000,138.82109
1828.00000,223.58881
1830.00000,175.21857
1832.00000,177.72873
1834.00000,235.45367
1836.00000,296.95187
1838.00000,376.87302
1840.00000,292.53119
1842.00000,193.09749
1844.00000,224.28775
1846.00000,301.94736
1848.00000,269.33188
1850.00000,317.93665
1852.00000,368.16602
1854.00000,318.07495
1856.00000,312.87894
1858.00000,321.23441
1860.00000,333.79535
1862.00000,389.76071
1864.00000,458.48926
1866.00000,404.46283
1868.00000,452.18723
1870.00000,430.71674
1872.00000,302.92160
1874.00000,460.37445
1876.00000,435.68170
1878.00000,317.46234
1880.00000,390.10172
1882.00000,545.63971
1884.00000,383.37338
1886.00000,392.38919
1888.00000,369.27853
1890.00000,123.60841
1892.00000,297.83868
1894.00000,387.32544
1896.00000,321.27081
1898.00000,351.37454
1900.00000,451.00470
1902.00000,245.29027
1904.00000,281.63229
1906.00000,285.00980
1908.00000,32.58472
1910.00000,375.59918
1912.00000,301.67938
1914.00000,243.74123
1916.00000,415.23587
1918.00000,142.09042
1920.00000,181.17970
1922.00000,262.58957
1924.00000,182.20226
1926.00000,167.08650
1928.00000,270.99265
1930.00000,169.81377
1932.00000,38.70080
1934.00000,102.89169
1936.00000,171.84941
1938.00000,45.89592
1940.00000,93.80409
1942.00000,265.12744
1944.00000,271.29550
1946.00000,334.19937
1948.00000,160.88268
1950.00000,230.57996
1952.00000,482.05307
1954.00000,145.10818
1956.00000,447.02896
1958.00000,539.22949
1960.00000,322.41611
1962.00000,482.36060
1964.00000,168.43698
1966.00000,235.78775
1968.00000,512.49005
1970.00000,428.22369
1972.00000,387.16513
1974.00000,678.34167
1976.00000,572.66693
1978.00000,321.60190
1980.00000,607.83392
1982.00000,337.21753
1984.00000,361.87143
1986.00000,525.12134
1988.00000,321.14551
1990.00000,335.73080
1992.00000,365.02011
1994.00000,331.78769
1996.00000,295.19424
1998.00000,272.58255
2000.00000,287.01196
2002.00000,318.25766
2004.00000,361.44244
2006.00000,265.38913
2008.00000,240.36574
2010.00000,203.25186
2012.00000,170.24748
2014.00000,215.82422
2016.00000,153.28358
2018.00000,139.70721
2020.00000,143.46771
2022.00000,93.81010
2024.00000,148.23703
2026.00000,168.50447
2028.00000,139.37227
2030.00000,146.87794
2032.00000,195.49692
2034.00000,152.37683
2036.00000,106.61874
2038.00000,120.85533
2040.00000,124.44012
2042.00000,100.98038
2044.00000,80.83118
2046.00000,89.89053
2048.00000,111.82256
2050.00000,99.49156
2052.00000,87.72334
2054.00000,91.86935
2056.00000,102.43524
2058.00000,122.31631
2060.00000,158.10788
2062.00000,150.02127
2064.00000,106.55200
2066.00000,109.12292
2068.00000,98.16518
2070.00000,96.93124
2072.00000,97.25652
2074.00000,84.66975
2076.00000,153.06386
2078.00000,143.27950
2080.00000,86.66884
2082.00000,116.83266
2084.00000,147.74446
2086.00000,100.41949
2088.00000,80.50868
2090.00000,121.12864
2092.00000,80.44433
2094.00000,83.07803
2096.00000,132.63658
2098.00000,143.46588
2100.00000,94.79834
2102.00000,96.38100
2104.00000,107.85765
2106.00000,93.85764
2108.00000,86.26509
2110.00000,96.67607
2112.00000,64.76646
2114.00000,55.10403
2116.00000,97.22050
2118.00000,59.60909
2120.00000,75.00080
2122.00000,86.10510
2124.00000,61.02501
2126.00000,114.72677
2128.00000,113.89954
2130.00000,106.94317
2132.00000,111.30376
2134.00000,77.65084
2136.00000,119.52776
2138.00000,142.82141
2140.00000,105.95382
2142.00000,84.55776
2144.00000,116.94038
2146.00000,114.72566
2148.00000,122.18770
2150.00000,176.66342
2152.00000,165.05780
2154.00000,114.83912
2156.00000,130.14818
2158.00000,176.65831
2160.00000,133.41838
2162.00000,150.51707
2164.00000,137.67162
2166.00000,79.00140
2168.00000,89.12103
2170.00000,124.64837
2172.00000,129.74043
2174.00000,114.43078
2176.00000,137.88770
2178.00000,210.09882
2180.00000,164.04756
2182.00000,101.21553
2184.00000,155.41515
2186.00000,207.43773
2188.00000,135.54866
2190.00000,103.55151
2192.00000,169.72548
2194.00000,162.54559
2196.00000,83.55552
2198.00000,98.31351
2200.00000,118.92052
2202.00000,25.72800
2204.00000,101.87697
2206.00000,97.28193
2208.00000,33.38939
2210.00000,68.59570
2212.00000,70.87856
2214.00000,82.80873
2216.00000,68.40578
2218.00000,36.41565
2220.00000,72.30066
2222.00000,37.12691
2224.00000,22.67100
2226.00000,64.12620
2228.00000,65.20454
2230.00000,80.10938
2232.00000,75.97650
2234.00000,60.07486
2236.00000,84.41761
2238.00000,132.51151
2240.00000,112.57596
2242.00000,74.49873
2244.00000,84.53754
2246.00000,96.02132
2248.00000,158.95940
2250.00000,136.46497
2252.00000,53.40448
2254.00000,117.72952
2256.00000,123.53080
2258.00000,89.82932
2260.00000,90.83393
2262.00000,104.24185
2264.00000,86.09415
2266.00000,81.79478
2268.00000,97.35932
2270.00000,105.61320
2272.00000,114.97781
2274.00000,107.78204
2276.00000,120.83106
2278.00000,158.38699
2280.00000,145.62987
2282.00000,96.70291
2284.00000,98.26171
2286.00000,119.50536
2288.00000,61.93761
2290.00000,59.68803
2292.00000,124.64135
2294.00000,169.53331
2296.00000,148.51091
2298.00000,142.59528
2300.00000,140.75992
2302.00000,146.23216
2304.00000,143.63283
2306.00000,76.25613
2308.00000,65.41457
2310.00000,86.00894
2312.00000,80.65608
2314.00000,80.64627
2316.00000,60.52921
2318.00000,69.04494
2320.00000,122.93069
2322.00000,159.19403
2324.00000,133.13142
2326.00000,119.44363
2328.00000,144.63911
2330.00000,160.01964
2332.00000,139.97083
2334.00000,120.30146
2336.00000,103.34294
2338.00000,85.88313
2340.00000,98.55920
2342.00000,128.88582
2344.00000,160.25241
2346.00000,176.65408
2348.00000,163.65244
2350.00000,124.43677
2352.00000,81.24873
2354.00000,85.65197
2356.00000,141.10542
2358.00000,129.07465
2360.00000,109.30344
2362.00000,122.04375
2364.00000,129.52026
2366.00000,100.75851
2368.00000,81.95543
2370.00000,104.88105
2372.00000,129.73228
2374.00000,99.39667
2376.00000,110.18322
2378.00000,125.20354
2380.00000,116.12637
2382.00000,128.73187
2384.00000,128.08882
2386.00000,144.46878
2388.00000,136.06799
2390.00000,81.56609
2392.00000,133.15852
2394.00000,115.34291
2396.00000,49.94986
2398.00000,88.30605
2400.00000,173.34192
2402.00000,134.23209
2404.00000,92.99416
2406.00000,128.29291
2408.00000,106.04398
2410.00000,159.60864
2412.00000,187.21536
2414.00000,113.95448
2416.00000,57.10395
2418.00000,119.42286
2420.00000,148.58536
2422.00000,134.99568
2424.00000,162.87990
2426.00000,138.50323
2428.00000,137.45869
2430.00000,147.23558
2432.00000,123.05643
2434.00000,110.04565
2436.00000,97.66512
2438.00000,108.84198
2440.00000,139.84639
2442.00000,147.10780
2444.00000,151.98941
2446.00000,110.56573
2448.00000,74.23067
2450.00000,122.17267
2452.00000,131.31392
2454.00000,112.77020
2456.00000,107.86500
2458.00000,114.64653
2460.00000,109.75818
2462.00000,131.54738
2464.00000,166.56099
2466.00000,158.92833
2468.00000,107.26137
2470.00000,144.98856
2472.00000,143.20570
2474.00000,72.51430
2476.00000,98.32455
2478.00000,136.11830
2480.00000,85.12500
2482.00000,84.64096
2484.00000,203.64940
2486.00000,73.12642
2488.00000,29.27951
2490.00000,113.16348
2492.00000,109.24635
2494.00000,71.88943
2496.00000,102.99347
2498.00000,157.17064
2500.00000,180.29137
2502.00000,195.84328
2504.00000,144.66310
2506.00000,123.76798
2508.00000,139.03185
2510.00000,102.53423
2512.00000,124.72145
2514.00000,144.67694
2516.00000,137.97049
2518.00000,134.61223
2520.00000,97.15430
2522.00000,73.00088
2524.00000,72.82092
2526.00000,88.71872
2528.00000,121.11536
2530.00000,71.90946
2532.00000,37.19734
2534.00000,96.16833
2536.00000,144.80696
2538.00000,84.91999
2540.00000,56.44409
2542.00000,88.16537
2544.00000,78.66839
2546.00000,101.17757
2548.00000,121.39627
2550.00000,116.53886
2552.00000,110.57972
2554.00000,123.74291
2556.00000,160.37814
2558.00000,136.20445
2560.00000,79.19495
2562.00000,151.76549
2564.00000,186.12488
2566.00000,162.96613
2568.00000,153.97360
2570.00000,164.89667
2572.00000,131.63965
2574.00000,140.92570
2576.00000,198.01968
2578.00000,199.51848
2580.00000,132.35982
2582.00000,111.37214
2584.00000,152.53368
2586.00000,197.61365
2588.00000,219.04753
2590.00000,142.77344
2592.00000,140.01498
2594.00000,255.52864
2596.00000,245.94554
2598.00000,159.56377
2600.00000,172.01535
2602.00000,218.93848
2604.00000,159.81470
2606.00000,274.51398
2608.00000,256.92236
2610.00000,146.49638
2612.00000,205.03419
2614.00000,188.16476
2616.00000,161.77167
2618.00000,161.17532
2620.00000,169.73439
2622.00000,195.81281
2624.00000,105.09147
2626.00000,131.43916
2628.00000,265.01483
2630.00000,154.90291
2632.00000,105.36692
2634.00000,149.92622
2636.00000,143.05092
2638.00000,63.10086
2640.00000,102.45820
2642.00000,117.86166
2644.00000,100.17211
2646.00000,144.71291
2648.00000,161.61591
2650.00000,122.78668
2652.00000,80.50490
2654.00000,82.91303
2656.00000,106.36880
2658.00000,98.18661
2660.00000,93.35323
2662.00000,105.99558
2664.00000,100.44590
2666.00000,118.87844
2668.00000,176.80296
2670.00000,175.20877
2672.00000,68.27965
2674.00000,67.65117
2676.00000,158.36777
2678.00000,146.05592
2680.00000,37.95711
2682.00000,134.90305
2684.00000,143.47420
2686.00000,70.29275
2688.00000,77.06466
2690.00000,122.42518
2692.00000,90.90039
2694.00000,92.81738
2696.00000,135.04251
2698.00000,112.99399
2700.00000,183.08096
2702.00000,236.81380
2704.00000,183.70390
2706.00000,115.16071
2708.00000,170.44681
2710.00000,172.91707
2712.00000,152.13493
2714.00000,229.84006
2716.00000,325.25082
2718.00000,323.32053
2720.00000,223.63748
2722.00000,217.29869
2724.00000,414.58032
2726.00000,360.11584
2728.00000,322.95496
2730.00000,451.32083
2732.00000,494.51422
2734.00000,457.03830
2736.00000,470.67813
2738.00000,454.12857
2740.00000,333.57440
2742.00000,335.30588
2744.00000,376.64139
2746.00000,318.76913
2748.00000,225.52184
2750.00000,269.93747
2752.00000,191.25145
2754.00000,144.19679
2756.00000,198.23643
2758.00000,138.26445
2760.00000,86.56148
2762.00000,137.84158
2764.00000,157.92906
2766.00000,36.75421
2768.00000,27.61581
2770.00000,65.62694
2772.00000,57.95275
2774.00000,31.32422
2776.00000,59.09870
2778.00000,85.71698
2780.00000,110.26306
2782.00000,153.90714
2784.00000,180.32938
2786.00000,146.01036
2788.00000,269.99591
2790.00000,382.63574
2792.00000,185.04301
2794.00000,275.94666
2796.00000,344.12054
2798.00000,202.67644
2800.00000,146.09395
2802.00000,333.55579
2804.00000,241.28360
2806.00000,103.98105
2808.00000,221.00053
2810.00000,140.54939
2812.00000,136.41203
2814.00000,222.49033
2816.00000,267.61771
2818.00000,285.32925
2820.00000,301.34818
2822.00000,320.91528
2824.00000,381.16772
2826.00000,504.27826
2828.00000,599.28015
2830.00000,666.74127
2832.00000,852.51764
2834.00000,1095.91821
2836.00000,1041.17114
2838.00000,1261.71826
2840.00000,1515.59216
2842.00000,1438.33960
2844.00000,1465.45190
2846.00000,1751.12329
2848.00000,1788.41577
2850.00000,1629.37378
2852.00000,1845.40540
2854.00000,1807.02625
2856.00000,1564.33618
2858.00000,1437.59167
2860.00000,1418.99353
2862.00000,1167.14722
2864.00000,1036.38818
2866.00000,977.07904
2868.00000,772.55157
2870.00000,652.55261
2872.00000,466.09695
2874.00000,381.85623
2876.00000,412.49191
2878.00000,258.89664
2880.00000,334.92059
2882.00000,463.02682
2884.00000,417.68982
2886.00000,322.51279
2888.00000,306.68594
2890.00000,459.20831
2892.00000,573.49323
2894.00000,515.50439
2896.00000,661.43475
2898.00000,867.59381
2900.00000,896.23468
2902.00000,834.09039
2904.00000,992.38257
2906.00000,1036.72729
2908.00000,968.71417
2910.00000,1016.77771
2912.00000,1217.91003
2914.00000,1293.72290
2916.00000,1176.21851
2918.00000,1207.79187
2920.00000,1503.94482
2922.00000,1289.03723
2924.00000,1310.03015
2926.00000,1606.81458
2928.00000,1662.39819
2930.00000,1805.11548
2932.00000,1993.26172
2934.00000,2044.42236
2936.00000,2060.50513
2938.00000,2319.03369
2940.00000,2361.81079
2942.00000,2496.61694
2944.00000,2810.29199
2946.00000,2894.10352
2948.00000,3152.90747
2950.00000,3370.93481
2952.00000,3431.50610
2954.00000,3588.81274
2956.00000,3925.79688
2958.00000,4022.69043
2960.00000,4135.03613
2962.00000,4441.04590
2964.00000,4248.09326
2966.00000,4135.23438
2968.00000,4163.46533
2970.00000,4052.91919
2972.00000,3833.11646
2974.00000,3643.44946
2976.00000,3475.69238
2978.00000,3269.43848
2980.00000,3015.43164
2982.00000,2760.54004
2984.00000,2604.03174
2986.00000,2447.50659
2988.00000,2217.82227
2990.00000,2148.10229
2992.00000,1974.32288
2994.00000,1849.55359
2996.00000,1900.19910
2998.00000,1747.75500
3000.00000,1673.92761
3002.00000,1766.73169
3004.00000,1835.54883
3006.00000,1735.07898
3008.00000,1660.13745
3010.00000,1515.54724
3012.00000,1349.61865
3014.00000,1344.83252
3016.00000,1318.51538
3018.00000,1284.52832
3020.00000,1156.98608
3022.00000,965.60638
3024.00000,1027.73218
3026.00000,840.75006
3028.00000,739.42499
3030.00000,891.27045
3032.00000,611.90845
3034.00000,581.03021
3036.00000,532.69391
3038.00000,399.65024
3040.00000,578.22424
3042.00000,215.62181
3044.00000,50.11827
3046.00000,240.69655
3048.00000,163.41971
3050.00000,150.51181
3052.00000,57.52043
3054.00000,24.07283
3056.00000,132.87079
3058.00000,-1.34239
3060.00000,179.89134
3062.00000,279.19119
3064.00000,3.75058
3066.00000,-13.35479
3068.00000,104.80532
3070.00000,96.27589
3072.00000,-10.11247
3074.00000,35.12179
3076.00000,219.60590
3078.00000,187.85951
3080.00000,120.31812
3082.00000,307.30099
3084.00000,255.88179
3086.00000,128.13129
3088.00000,316.60568
3090.00000,680.44830
3092.00000,562.56262
3094.00000,435.17108
3096.00000,429.54776
3098.00000,433.48932
3100.00000,471.85428
3102.00000,538.30743
3104.00000,627.48486
3106.00000,698.58728
3108.00000,709.64178
3110.00000,715.52313
3112.00000,798.08838
3114.00000,739.42511
3116.00000,611.77716
3118.00000,1004.38934
3120.00000,651.16339
3122.00000,358.95184
3124.00000,821.72729
3126.00000,600.04828
3128.00000,253.09845
3130.00000,491.81183
3132.00000,745.22791
3134.00000,180.24940
3136.00000,368.94580
3138.00000,519.37897
3140.00000,282.87338
3142.00000,375.59024
3144.00000,489.56693
3146.00000,414.39551
3148.00000,284.59622
3150.00000,203.55031
3152.00000,18.80759
3154.00000,86.58086
3156.00000,153.62827
3158.00000,34.30299
3160.00000,110.87263
3162.00000,252.05695
3164.00000,190.03389
3166.00000,-8.60484
3168.00000,15.77126
3170.00000,319.55814
3172.00000,441.60422
3174.00000,489.08188
3176.00000,610.63989
3178.00000,120.41328
3180.00000,123.83989
3182.00000,466.90305
3184.00000,489.94363
3186.00000,604.81323
3188.00000,460.79074
3190.00000,315.88995
3192.00000,465.87842
3194.00000,651.07330
3196.00000,677.49390
3198.00000,879.01843
3200.00000,940.57355
