300.00000,1480.11230
302.00000,1342.74475
304.00000,1111.02954
306.00000,985.06689
308.00000,800.55438
310.00000,577.94238
312.00000,478.19678
314.00000,420.84149
316.00000,385.06769
318.00000,399.66296
320.00000,402.60141
322.00000,327.11511
324.00000,395.34103
326.00000,478.08868
328.00000,489.92865
330.00000,500.77328
332.00000,519.63727
334.00000,540.46338
336.00000,543.87372
338.00000,523.45624
340.00000,491.78592
342.00000,453.26379
344.00000,500.37198
346.00000,645.15247
348.00000,829.55774
350.00000,1069.52356
352.00000,1322.56982
354.00000,1499.00598
356.00000,1582.28076
358.00000,1622.75061
360.00000,1509.71423
362.00000,1333.70068
364.00000,1185.29297
366.00000,1026.28833
368.00000,811.56226
370.00000,641.43939
372.00000,536.01270
374.00000,448.00510
376.00000,375.38345
378.00000,343.37674
380.00000,333.37326
382.00000,297.25403
384.00000,233.30843
386.00000,227.89050
388.00000,215.70511
390.00000,152.25465
392.00000,121.18570
394.00000,196.44594
396.00000,89.43222
398.00000,51.56103
400.00000,147.88950
402.00000,82.34058
404.00000,73.17608
406.00000,99.21702
408.00000,103.88702
410.00000,99.30222
412.00000,100.24165
414.00000,124.01734
416.00000,119.14839
418.00000,92.04494
420.00000,107.75892
422.00000,97.95329
424.00000,108.40146
426.00000,148.80316
428.00000,153.49918
430.00000,95.43063
432.00000,78.53142
434.00000,118.63873
436.00000,160.71576
438.00000,170.85255
440.00000,163.94435
442.00000,178.06975
444.00000,202.54305
446.00000,227.91747
448.00000,308.99753
450.00000,356.46255
452.00000,381.58398
454.00000,447.51703
456.00000,532.49805
458.00000,550.56262
460.00000,543.23547
462.00000,518.53809
464.00000,458.95569
466.00000,447.52188
468.00000,390.67349
470.00000,340.81961
472.00000,334.61594
474.00000,258.11243
476.00000,227.47562
478.00000,229.79088
480.00000,220.41605
482.00000,210.85332
484.00000,210.30382
486.00000,228.53474
488.00000,215.06082
490.00000,174.76852
492.00000,210.11842
494.00000,238.94850
496.00000,245.60739
498.00000,240.99614
500.00000,220.32643
502.00000,215.95802
504.00000,231.12677
506.00000,223.91068
508.00000,179.87920
510.00000,154.90245
512.00000,146.01321
514.00000,165.15291
516.00000,200.77312
518.00000,216.93523
520.00000,231.66263
522.00000,246.39513
524.00000,288.40131
526.00000,379.57239
528.00000,469.28476
530.00000,480.35110
532.00000,521.07733
534.00000,590.79590
536.00000,536.93109
538.00000,502.86618
540.00000,439.47055
542.00000,345.49399
544.00000,292.70435
546.00000,252.91298
548.00000,234.55675
550.00000,215.50438
552.00000,195.75124
554.00000,203.75047
556.00000,182.78357
558.00000,217.36436
560.00000,281.77716
562.00000,310.73532
564.00000,437.40213
566.00000,537.99121
568.00000,558.79608
570.00000,575.80603
572.00000,637.40277
574.00000,620.22260
576.00000,587.89929
578.00000,590.93329
580.00000,578.63928
582.00000,544.95697
584.00000,535.01001
586.00000,546.15479
588.00000,549.27942
590.00000,537.43085
592.00000,494.66388
594.00000,449.05234
596.00000,427.84790
598.00000,422.56305
600.00000,407.97720
602.00000,392.45038
604.00000,394.87186
606.00000,405.93951
608.00000,388.57663
610.00000,358.95355
612.00000,344.97534
614.00000,349.34061
616.00000,355.06473
618.00000,357.00400
620.00000,314.34897
622.00000,282.21024
624.00000,298.14032
626.00000,259.51663
628.00000,209.78812
630.00000,182.97131
632.00000,197.98369
634.00000,245.13820
636.00000,222.89534
638.00000,171.38458
640.00000,135.72452
642.00000,135.13242
644.00000,190.88603
646.00000,179.12846
648.00000,154.43196
650.00000,167.11597
652.00000,144.83640
654.00000,152.60411
656.00000,220.55298
658.00000,296.77695
660.00000,370.96518
662.00000,546.49036
664.00000,662.45227
666.00000,733.30078
668.00000,805.25812
670.00000,779.22644
672.00000,671.41565
674.00000,559.89679
676.00000,502.32968
678.00000,486.70639
680.00000,444.85464
682.00000,372.03879
684.00000,329.23633
686.00000,330.72391
688.00000,307.21759
690.00000,276.54990
692.00000,261.56595
694.00000,256.05060
696.00000,247.40950
698.00000,244.64716
700.00000,194.39020
702.00000,145.09869
704.00000,146.75914
706.00000,142.22507
708.00000,168.63226
710.00000,209.68555
712.00000,209.27299
714.00000,185.83266
716.00000,273.42151
718.00000,303.47229
720.00000,362.09613
722.00000,592.33453
724.00000,808.99139
726.00000,1011.16156
728.00000,1268.09436
730.00000,1561.02368
732.00000,1815.98499
734.00000,2088.71851
736.00000,2341.78394
738.00000,2539.03198
740.00000,2708.21411
742.00000,2892.82495
744.00000,3021.94971
746.00000,3068.06177
748.00000,3040.37036
750.00000,2953.70752
752.00000,2842.54224
754.00000,2638.24463
756.00000,2346.94946
758.00000,2044.66821
760.00000,1741.88440
762.00000,1447.12866
764.00000,1224.26929
766.00000,1044.83875
768.00000,813.33606
770.00000,686.48163
772.00000,626.02448
774.00000,548.55792
776.00000,468.35953
778.00000,451.19867
780.00000,439.17352
782.00000,402.39700
784.00000,360.17984
786.00000,329.74161
788.00000,301.95441
790.00000,265.90680
792.00000,231.85030
794.00000,233.12221
796.00000,276.68124
798.00000,220.71315
800.00000,161.81441
802.00000,186.28067
804.00000,145.99500
806.00000,141.99847
808.00000,142.34547
810.00000,129.10938
812.00000,183.71989
814.00000,323.57065
816.00000,439.40350
818.00000,629.61835
820.00000,966.81750
822.00000,1287.37219
824.00000,1753.65735
826.00000,2293.12378
828.00000,2672.01953
830.00000,2775.26147
832.00000,2725.03735
834.00000,2491.22900
836.00000,2148.65381
838.00000,1829.45984
840.00000,1544.41309
842.00000,1360.11365
844.00000,1241.05811
846.00000,1146.78113
848.00000,1094.31604
850.00000,1052.31067
852.00000,973.49860
854.00000,893.27362
856.00000,871.01703
858.00000,886.68048
860.00000,950.74152
862.00000,1043.70984
864.00000,1151.74402
866.00000,1252.45618
868.00000,1224.27527
870.00000,1139.60999
872.00000,993.53442
874.00000,754.78052
876.00000,582.25098
878.00000,429.85895
880.00000,337.14810
882.00000,338.96338
884.00000,343.14288
886.00000,303.20956
888.00000,265.65848
890.00000,270.86545
892.00000,313.43823
894.00000,367.53372
896.00000,360.17810
898.00000,361.20135
900.00000,405.44656
902.00000,379.47336
904.00000,342.81006
906.00000,312.91888
908.00000,292.63477
910.00000,286.26758
912.00000,260.08615
914.00000,244.46834
916.00000,254.36012
918.00000,261.53754
920.00000,236.10347
922.00000,215.88313
924.00000,200.00011
926.00000,176.75121
928.00000,158.16139
930.00000,158.94742
932.00000,144.75677
934.00000,124.64803
936.00000,120.55074
938.00000,108.04932
940.00000,95.81648
942.00000,70.58406
944.00000,54.59136
946.00000,76.58990
948.00000,58.21483
950.00000,75.34543
952.00000,81.24982
954.00000,53.69339
956.00000,176.83965
958.00000,243.41090
960.00000,253.23938
962.00000,305.97446
964.00000,352.65793
966.00000,272.84302
968.00000,242.61955
970.00000,252.02180
972.00000,181.78384
974.00000,168.79506
976.00000,155.93504
978.00000,133.73224
980.00000,138.41330
982.00000,157.54672
984.00000,138.30351
986.00000,117.76133
988.00000,113.16894
990.00000,100.80940
992.00000,89.32925
994.00000,82.02172
996.00000,79.09695
998.00000,62.51972
1000.00000,25.65342
1002.00000,52.54722
1004.00000,75.28002
1006.00000,66.54856
1008.00000,82.88882
1010.00000,106.16872
1012.00000,114.67995
1014.00000,98.71675
1016.00000,97.09917
1018.00000,167.60983
1020.00000,233.01694
1022.00000,252.83640
1024.00000,310.85385
1026.00000,447.62357
1028.00000,450.17972
1030.00000,414.68710
1032.00000,439.10403
1034.00000,463.07123
1036.00000,396.88144
1038.00000,402.57413
1040.00000,349.35193
1042.00000,237.31877
1044.00000,255.44839
1046.00000,229.55588
1048.00000,194.83102
1050.00000,183.06039
1052.00000,188.40285
1054.00000,234.60199
1056.00000,199.84915
1058.00000,148.35629
1060.00000,138.47606
1062.00000,114.83223
1064.00000,121.45655
1066.00000,126.01279
1068.00000,103.07373
1070.00000,83.25537
1072.00000,96.48282
1074.00000,54.68542
1076.00000,70.13833
1078.00000,142.05122
1080.00000,97.35549
1082.00000,123.49245
1084.00000,117.28725
1086.00000,82.08285
1088.00000,117.25945
1090.00000,102.38528
1092.00000,88.34485
1094.00000,108.30354
1096.00000,108.16908
1098.00000,59.58321
1100.00000,120.71956
1102.00000,137.95662
1104.00000,83.64706
1106.00000,116.71214
1108.00000,197.00591
1110.00000,177.09294
1112.00000,150.02760
1114.00000,199.74973
1116.00000,201.16460
1118.00000,221.82384
1120.00000,258.37799
1122.00000,258.13950
1124.00000,230.82784
1126.00000,271.14273
1128.00000,292.42136
1130.00000,312.19815
1132.00000,316.66037
1134.00000,182.66479
1136.00000,165.84094
1138.00000,164.51154
1140.00000,120.11816
1142.00000,143.74318
1144.00000,102.34213
1146.00000,95.40428
1148.00000,128.69261
1150.00000,115.94182
1152.00000,79.49064
1154.00000,99.60282
1156.00000,128.73373
1158.00000,122.15492
1160.00000,110.73347
1162.00000,93.76545
1164.00000,107.28342
1166.00000,123.88401
1168.00000,100.06101
1170.00000,75.16155
1172.00000,72.58739
1174.00000,51.15722
1176.00000,20.27239
1178.00000,45.07182
1180.00000,70.08733
1182.00000,78.76256
1184.00000,66.76846
1186.00000,53.49581
1188.00000,82.33643
1190.00000,49.78873
1192.00000,52.40181
1194.00000,104.32501
1196.00000,53.85809
1198.00000,98.48147
1200.00000,168.20157
1202.00000,180.57426
1204.00000,213.21204
1206.00000,371.81839
1208.00000,572.02136
1210.00000,771.64026
1212.00000,1046.21643
1214.00000,1485.91162
1216.00000,2008.49023
1218.00000,2537.85645
1220.00000,2990.99023
1222.00000,3295.58179
1224.00000,3447.05542
1226.00000,3400.20752
1228.00000,3097.52246
1230.00000,2629.11304
1232.00000,2208.07324
1234.00000,1763.18506
1236.00000,1318.05542
1238.00000,965.10364
1240.00000,740.65356
1242.00000,588.97522
1244.00000,507.30313
1246.00000,470.03336
1248.00000,443.40869
1250.00000,424.66306
1252.00000,380.36981
1254.00000,301.57333
1256.00000,246.54688
1258.00000,259.03098
1260.00000,235.55075
1262.00000,193.88663
1264.00000,197.96841
1266.00000,213.92955
1268.00000,150.32639
1270.00000,241.73135
1272.00000,363.57892
1274.00000,393.14218
1276.00000,464.05093
1278.00000,589.62567
1280.00000,696.92035
1282.00000,729.78333
1284.00000,698.28174
1286.00000,655.74805
1288.00000,607.18976
1290.00000,530.81158
1292.00000,436.63422
1294.00000,379.49246
1296.00000,380.29184
1298.00000,332.07626
1300.00000,248.58333
1302.00000,218.78192
1304.00000,199.04314
1306.00000,216.61412
1308.00000,228.71819
1310.00000,239.03268
1312.00000,310.87125
1314.00000,297.38632
1316.00000,302.11917
1318.00000,323.62424
1320.00000,285.37134
1322.00000,331.75055
1324.00000,241.50653
1326.00000,114.31989
1328.00000,115.92636
1330.00000,114.25311
1332.00000,100.11732
1334.00000,93.90862
1336.00000,85.73669
1338.00000,66.68450
1340.00000,81.63912
1342.00000,104.78398
1344.00000,107.03814
1346.00000,109.91139
1348.00000,148.62556
1350.00000,145.20732
1352.00000,150.71738
1354.00000,174.50044
1356.00000,157.60460
1358.00000,171.70256
1360.00000,215.70537
1362.00000,238.48761
1364.00000,236.21233
1366.00000,261.64529
1368.00000,237.78140
1370.00000,259.57010
1372.00000,290.15588
1374.00000,193.00735
1376.00000,209.04938
1378.00000,204.76167
1380.00000,154.30560
1382.00000,168.05304
1384.00000,208.55501
1386.00000,247.46022
1388.00000,242.44377
1390.00000,209.03972
1392.00000,207.96347
1394.00000,198.43344
1396.00000,163.80396
1398.00000,128.64594
1400.00000,129.15601
1402.00000,157.52283
1404.00000,110.77695
1406.00000,65.00130
1408.00000,78.32355
1410.00000,66.07558
1412.00000,65.06445
1414.00000,80.91096
1416.00000,80.30298
1418.00000,53.05589
1420.00000,52.73927
1422.00000,90.43877
1424.00000,117.73942
1426.00000,87.54778
1428.00000,36.37654
1430.00000,91.28644
1432.00000,132.90739
1434.00000,127.79135
1436.00000,171.87744
1438.00000,223.39786
1440.00000,330.05829
1442.00000,480.63373
1444.00000,625.75079
1446.00000,762.75867
1448.00000,893.04565
1450.00000,893.07043
1452.00000,897.86646
1454.00000,1041.77673
1456.00000,887.89374
1458.00000,881.15302
1460.00000,958.19507
1462.00000,860.96405
1464.00000,881.77716
1466.00000,902.43652
1468.00000,930.05365
1470.00000,964.98944
1472.00000,949.88837
1474.00000,995.25964
1476.00000,1012.42560
1478.00000,915.43835
1480.00000,750.45593
1482.00000,634.58258
1484.00000,542.12653
1486.00000,384.76334
1488.00000,228.45760
1490.00000,201.44568
1492.00000,123.28475
1494.00000,57.28650
1496.00000,93.08625
1498.00000,157.18442
1500.00000,103.27297
1502.00000,99.34334
1504.00000,126.72299
1506.00000,98.37889
1508.00000,53.91047
1510.00000,57.83986
1512.00000,188.48364
1514.00000,229.95384
1516.00000,62.42020
1518.00000,107.56863
1520.00000,166.81313
1522.00000,164.75291
1524.00000,154.37970
1526.00000,133.36070
1528.00000,192.11601
1530.00000,168.59293
1532.00000,100.63189
1534.00000,147.93568
1536.00000,143.16518
1538.00000,125.58484
1540.00000,132.05653
1542.00000,130.89005
1544.00000,92.58597
1546.00000,66.10130
1548.00000,124.46362
1550.00000,169.49727
1552.00000,100.73546
1554.00000,132.64868
1556.00000,175.46796
1558.00000,171.22430
1560.00000,138.11949
1562.00000,93.66893
1564.00000,165.72932
1566.00000,184.02528
1568.00000,108.92446
1570.00000,112.76984
1572.00000,131.75554
1574.00000,142.99416
1576.00000,156.51643
1578.00000,147.64325
1580.00000,73.05983
1582.00000,42.39495
1584.00000,99.23174
1586.00000,151.96893
1588.00000,125.84110
1590.00000,162.30338
1592.00000,137.34283
1594.00000,93.27028
1596.00000,123.23270
1598.00000,84.00570
1600.00000,85.41976
1602.00000,132.43059
1604.00000,148.68866
1606.00000,106.66295
1608.00000,48.64266
1610.00000,59.05918
1612.00000,108.06673
1614.00000,113.98266
1616.00000,96.94416
1618.00000,65.04451
1620.00000,95.03735
1622.00000,160.28049
1624.00000,132.82114
1626.00000,134.45520
1628.00000,211.20770
1630.00000,247.79764
1632.00000,187.01123
1634.00000,204.18469
1636.00000,159.97650
1638.00000,146.21141
1640.00000,210.10306
1642.00000,148.02380
1644.00000,87.40260
1646.00000,121.90714
1648.00000,151.93314
1650.00000,109.74527
1652.00000,198.42679
1654.00000,199.80438
1656.00000,184.33856
1658.00000,261.00223
1660.00000,249.70595
1662.00000,264.70786
1664.00000,241.58389
1666.00000,217.58734
1668.00000,292.99411
1670.00000,254.23044
1672.00000,207.66148
1674.00000,201.00885
1676.00000,192.20685
1678.00000,185.44695
1680.00000,123.52538
1682.00000,176.13622
1684.00000,228.87073
1686.00000,86.12361
1688.00000,251.89801
1690.00000,221.20909
1692.00000,128.60498
1694.00000,307.01669
1696.00000,247.51683
1698.00000,185.38261
1700.00000,267.72214
1702.00000,314.36398
1704.00000,170.84839
1706.00000,160.91899
1708.00000,160.40703
1710.00000,110.49964
1712.00000,110.63612
1714.00000,127.73271
1716.00000,99.57750
1718.00000,69.54809
1720.00000,124.03878
1722.00000,219.47427
1724.00000,124.61355
1726.00000,164.74515
1728.00000,264.04034
1730.00000,157.31660
1732.00000,190.26486
1734.00000,198.96205
1736.00000,149.58542
1738.00000,122.46471
1740.00000,106.87522
1742.00000,111.47247
1744.00000,135.66357
1746.00000,177.43535
1748.00000,207.66043
1750.00000,181.29541
1752.00000,253.50769
1754.00000,314.47757
1756.00000,251.26582
1758.00000,228.98660
1760.00000,292.50980
1762.00000,305.53973
1764.00000,250.99440
1766.00000,257.90930
1768.00000,306.52084
1770.00000,177.20105
1772.00000,120.60567
1774.00000,226.27649
1776.00000,70.83399
1778.00000,154.98779
1780.00000,228.56764
1782.00000,157.70679
1784.00000,250.99823
1786.00000,348.25751
1788.00000,346.79999
1790.00000,327.09641
1792.00000,379.45377
1794.00000,406.56677
1796.00000,248.21947
1798.00000,266.73953
1800.00000,415.51672
1802.00000,265.94748
1804.00000,276.05353
1806.00000,194.77473
1808.00000,107.10748
1810.00000,219.54411
1812.00000,169.09454
1814.00000,116.68002
1816.00000,180.64403
1818.00000,250.54863
1820.00000,217.36823
1822.00000,288.52744
1824.00000,289.87964
1826.00000,230.62004
1828.00000,236.11459
1830.00000,155.42261
1832.00000,140.90622
1834.00000,149.41338
1836.00000,86.94525
1838.00000,39.97140
1840.00000,113.59886
1842.00000,192.95700
1844.00000,163.96426
1846.00000,88.07404
1848.00000,130.93837
1850.00000,182.08087
1852.00000,271.60291
1854.00000,359.95520
1856.00000,244.58922
1858.00000,132.37593
1860.00000,242.43094
1862.00000,289.99536
1864.00000,81.25976
1866.00000,274.36124
1868.00000,207.61394
1870.00000,105.37809
1872.00000,295.73178
1874.00000,191.28709
1876.00000,125.09724
1878.00000,229.81203
1880.00000,306.81696
1882.00000,242.73236
1884.00000,306.03775
1886.00000,262.05652
1888.00000,232.68362
1890.00000,327.11996
1892.00000,197.94777
1894.00000,130.34560
1896.00000,186.94858
1898.00000,204.68080
1900.00000,160.63326
1902.00000,311.66544
1904.00000,255.80188
1906.00000,172.20009
1908.00000,347.30106
1910.00000,323.72556
1912.00000,263.38605
1914.00000,306.90808
1916.00000,337.28333
1918.00000,261.64398
1920.00000,376.18521
1922.00000,293.05069
1924.00000,117.82993
1926.00000,204.08749
1928.00000,265.00195
1930.00000,322.94949
1932.00000,307.81964
1934.00000,226.54680
1936.00000,258.52466
1938.00000,371.34689
1940.00000,342.71600
1942.00000,364.46368
1944.00000,514.99170
1946.00000,211.16685
1948.00000,259.97498
1950.00000,333.20218
1952.00000,165.88817
1954.00000,355.36258
1956.00000,170.74893
1958.00000,208.53719
1960.00000,457.60880
1962.00000,332.38464
1964.00000,400.44928
1966.00000,383.87555
1968.00000,292.97961
1970.00000,360.48865
1972.00000,463.65955
1974.00000,260.42282
1976.00000,250.31023
1978.00000,334.76700
1980.00000,72.74072
1982.00000,211.41336
1984.00000,233.04509
1986.00000,200.14636
1988.00000,342.31580
1990.00000,239.06001
1992.00000,197.15971
1994.00000,285.48132
1996.00000,286.32019
1998.00000,125.52545
2000.00000,246.02689
2002.00000,231.30208
2004.00000,146.60696
2006.00000,136.27975
2008.00000,98.07135
2010.00000,120.96637
2012.00000,147.29364
2014.00000,86.70098
2016.00000,147.72269
2018.00000,147.41711
2020.00000,121.73154
2022.00000,175.90675
2024.00000,156.09293
2026.00000,124.50162
2028.00000,115.06967
2030.00000,104.64635
2032.00000,93.83755
2034.00000,144.92705
2036.00000,132.62727
2038.00000,73.48137
2040.00000,113.72330
2042.00000,135.36928
2044.00000,137.62289
2046.00000,138.11722
2048.00000,137.92293
2050.00000,159.72400
2052.00000,165.80040
2054.00000,140.37714
2056.00000,110.87891
2058.00000,105.43329
2060.00000,83.85107
2062.00000,92.14589
2064.00000,127.49406
2066.00000,109.41855
2068.00000,95.37106
2070.00000,123.51406
2072.00000,130.71568
2074.00000,78.25816
2076.00000,105.29838
2078.00000,89.15156
2080.00000,61.05724
2082.00000,109.37498
2084.00000,104.33272
2086.00000,67.61666
2088.00000,39.44812
2090.00000,43.07377
2092.00000,90.57915
2094.00000,140.29329
2096.00000,81.34919
2098.00000,29.97457
2100.00000,164.55101
2102.00000,146.45912
2104.00000,80.06293
2106.00000,73.22255
2108.00000,71.44724
2110.00000,84.47511
2112.00000,97.58179
2114.00000,99.78315
2116.00000,96.68817
2118.00000,99.10020
2120.00000,101.00591
2122.00000,91.01343
2124.00000,89.96475
2126.00000,123.87822
2128.00000,114.76846
2130.00000,60.34295
2132.00000,44.39232
2134.00000,106.50868
2136.00000,110.55762
2138.00000,90.89746
2140.00000,98.91124
2142.00000,113.56398
2144.00000,94.28740
2146.00000,99.62997
2148.00000,92.55000
2150.00000,70.17597
2152.00000,134.08014
2154.00000,127.19508
2156.00000,89.02472
2158.00000,88.24903
2160.00000,78.97681
2162.00000,82.93294
2164.00000,92.21822
2166.00000,94.09888
2168.00000,89.83553
2170.00000,80.99305
2172.00000,72.56919
2174.00000,64.59696
2176.00000,60.29009
2178.00000,77.15009
2180.00000,126.82059
2182.00000,152.92937
2184.00000,128.95470
2186.00000,117.81798
2188.00000,132.19464
2190.00000,112.46194
2192.00000,81.61385
2194.00000,123.15606
2196.00000,148.60271
2198.00000,107.11839
2200.00000,60.62631
2202.00000,93.15051
2204.00000,158.00267
2206.00000,142.83527
2208.00000,104.79361
2210.00000,120.28152
2212.00000,98.08179
2214.00000,55.98285
2216.00000,80.26521
2218.00000,120.08250
2220.00000,40.49298
2222.00000,48.15181
2224.00000,79.38100
2226.00000,72.29524
2228.00000,96.00602
2230.00000,115.37083
2232.00000,101.17191
2234.00000,71.22771
2236.00000,54.13189
2238.00000,49.47742
2240.00000,107.23320
2242.00000,161.94577
2244.00000,137.43001
2246.00000,91.54153
2248.00000,109.10095
2250.00000,144.54196
2252.00000,125.20551
2254.00000,82.29466
2256.00000,135.09116
2258.00000,142.58244
2260.00000,80.60043
2262.00000,91.25078
2264.00000,141.17097
2266.00000,110.71918
2268.00000,82.65023
2270.00000,156.76051
2272.00000,178.18881
2274.00000,130.49988
2276.00000,76.96415
2278.00000,67.37228
2280.00000,89.37688
2282.00000,100.43916
2284.00000,128.35036
2286.00000,129.10501
2288.00000,63.27978
2290.00000,154.97707
2292.00000,156.04520
2294.00000,75.00971
2296.00000,135.27144
2298.00000,146.86263
2300.00000,110.18204
2302.00000,146.49905
2304.00000,213.01389
2306.00000,105.95986
2308.00000,181.72519
2310.00000,267.17560
2312.00000,165.98526
2314.00000,119.30396
2316.00000,142.82425
2318.00000,133.99135
2320.00000,96.56139
2322.00000,118.57193
2324.00000,138.80725
2326.00000,117.91383
2328.00000,84.61610
2330.00000,75.52990
2332.00000,71.72559
2334.00000,105.54630
2336.00000,127.64056
2338.00000,94.54975
2340.00000,73.51144
2342.00000,105.33345
2344.00000,103.68314
2346.00000,52.07862
2348.00000,65.45499
2350.00000,138.30074
2352.00000,138.26924
2354.00000,95.74237
2356.00000,134.33046
2358.00000,138.82564
2360.00000,81.46262
2362.00000,47.79072
2364.00000,87.77573
2366.00000,103.89989
2368.00000,75.88787
2370.00000,131.99733
2372.00000,238.37675
2374.00000,154.20746
2376.00000,76.45649
2378.00000,105.84219
2380.00000,121.33659
2382.00000,44.11091
2384.00000,163.81897
2386.00000,158.79736
2388.00000,63.36203
2390.00000,164.34546
2392.00000,138.58333
2394.00000,74.83350
2396.00000,132.44272
2398.00000,225.34676
2400.00000,117.52740
2402.00000,94.27621
2404.00000,133.64906
2406.00000,97.25831
2408.00000,64.63759
2410.00000,132.47418
2412.00000,147.69034
2414.00000,126.59444
2416.00000,213.56467
2418.00000,173.38622
2420.00000,112.28262
2422.00000,117.87479
2424.00000,131.20038
2426.00000,115.01060
2428.00000,105.13510
2430.00000,128.44862
2432.00000,147.15332
2434.00000,108.96683
2436.00000,129.30821
2438.00000,145.80205
2440.00000,117.13168
2442.00000,124.50692
2444.00000,109.23009
2446.00000,103.71244
2448.00000,115.66650
2450.00000,112.25224
2452.00000,132.81384
2454.00000,160.59219
2456.00000,160.37521
2458.00000,122.63509
2460.00000,76.99251
2462.00000,57.07584
2464.00000,86.19392
2466.00000,108.46897
2468.00000,54.40165
2470.00000,113.10484
2472.00000,159.01921
2474.00000,92.68144
2476.00000,46.38201
2478.00000,70.76205
2480.00000,57.97900
2482.00000,22.08893
2484.00000,49.31034
2486.00000,55.12631
2488.00000,90.25747
2490.00000,105.05413
2492.00000,55.25235
2494.00000,54.45654
2496.00000,63.20364
2498.00000,64.58893
2500.00000,87.86058
2502.00000,132.31366
2504.00000,101.30682
2506.00000,58.62472
2508.00000,72.34370
2510.00000,103.50002
2512.00000,92.28016
2514.00000,108.39478
2516.00000,127.41190
2518.00000,97.37041
2520.00000,113.48996
2522.00000,91.25306
2524.00000,75.97347
2526.00000,121.00723
2528.00000,124.98812
2530.00000,120.38015
2532.00000,141.10530
2534.00000,161.51297
2536.00000,139.35622
2538.00000,121.15356
2540.00000,108.56809
2542.00000,111.99995
2544.00000,148.98975
2546.00000,173.44299
2548.00000,151.76294
2550.00000,110.98136
2552.00000,117.33868
2554.00000,187.67410
2556.00000,174.52170
2558.00000,134.16640
2560.00000,133.10982
2562.00000,93.18874
2564.00000,149.72069
2566.00000,200.61504
2568.00000,167.30914
2570.00000,155.51727
2572.00000,202.43379
2574.00000,185.65701
2576.00000,110.44558
2578.00000,103.72948
2580.00000,155.70380
2582.00000,149.30832
2584.00000,122.83528
2586.00000,127.25473
2588.00000,73.99689
2590.00000,122.45139
2592.00000,145.13275
2594.00000,64.79572
2596.00000,82.31548
2598.00000,150.99242
2600.00000,119.05953
2602.00000,64.16128
2604.00000,145.78659
2606.00000,118.26006
2608.00000,80.91771
2610.00000,69.44891
2612.00000,29.91447
2614.00000,66.28680
2616.00000,96.26477
2618.00000,95.06422
2620.00000,95.25182
2622.00000,97.48763
2624.00000,131.08070
2626.00000,156.01468
2628.00000,125.47232
2630.00000,65.83606
2632.00000,59.55263
2634.00000,39.25405
2636.00000,70.97846
2638.00000,206.73453
2640.00000,119.34632
2642.00000,91.51974
2644.00000,182.23912
2646.00000,166.11047
2648.00000,59.63197
2650.00000,169.59694
2652.00000,231.77318
2654.00000,110.76621
2656.00000,220.52321
2658.00000,214.98457
2660.00000,154.21867
2662.00000,188.59889
2664.00000,203.61281
2666.00000,97.98762
2668.00000,90.95247
2670.00000,173.58762
2672.00000,160.50281
2674.00000,172.21007
2676.00000,179.52252
2678.00000,139.80698
2680.00000,104.35089
2682.00000,154.05116
2684.00000,140.16954
2686.00000,138.50377
2688.00000,201.82565
2690.00000,188.09248
2692.00000,167.34134
2694.00000,218.21170
2696.00000,249.88168
2698.00000,159.09526
2700.00000,154.03163
2702.00000,124.94057
2704.00000,99.08760
2706.00000,185.17993
2708.00000,205.97993
2710.00000,133.52039
2712.00000,188.88737
2714.00000,326.28339
2716.00000,149.19946
2718.00000,179.97034
2720.00000,300.11801
2722.00000,261.71094
2724.00000,262.48383
2726.00000,420.63565
2728.00000,450.00687
2730.00000,325.08032
2732.00000,306.83539
2734.00000,319.20941
2736.00000,313.98553
2738.00000,259.74820
2740.00000,200.15851
2742.00000,263.23615
2744.00000,300.44214
2746.00000,243.05734
2748.00000,151.30194
2750.00000,111.88574
2752.00000,162.96866
2754.00000,132.61131
2756.00000,18.20658
2758.00000,17.27637
2760.00000,32.02846
2762.00000,73.93866
2764.00000,129.80157
2766.00000,128.90500
2768.00000,75.61736
2770.00000,39.67600
2772.00000,53.27413
2774.00000,103.79511
2776.00000,160.17470
2778.00000,149.09651
2780.00000,163.93684
2782.00000,204.10936
2784.00000,132.90518
2786.00000,187.27782
2788.00000,254.97945
2790.00000,235.66241
2792.00000,240.81186
2794.00000,297.79153
2796.00000,345.55243
2798.00000,370.52359
2800.00000,365.71680
2802.00000,268.78052
2804.00000,281.85336
2806.00000,328.32666
2808.00000,292.38770
2810.00000,325.59003
2812.00000,333.47116
2814.00000,298.18213
2816.00000,282.13116
2818.00000,310.78326
2820.00000,324.63034
2822.00000,397.24707
2824.00000,503.34378
2826.00000,564.01453
2828.00000,714.10144
2830.00000,843.70618
2832.00000,894.22656
2834.00000,965.63458
2836.00000,1154.19751
2838.00000,1284.70288
2840.00000,1362.76367
2842.00000,1545.61902
2844.00000,1826.88733
2846.00000,1817.76917
2848.00000,1789.87964
2850.00000,1884.08594
2852.00000,1824.59814
2854.00000,1805.00317
2856.00000,1732.86121
2858.00000,1605.37708
2860.00000,1483.66943
2862.00000,1174.99719
2864.00000,964.71478
2866.00000,839.21680
2868.00000,607.19781
2870.00000,397.83899
2872.00000,380.56363
2874.00000,385.94531
2876.00000,270.82501
2878.00000,204.92580
2880.00000,290.88553
2882.00000,236.90797
2884.00000,186.51958
2886.00000,480.48352
2888.00000,458.54132
2890.00000,445.99405
2892.00000,615.62555
2894.00000,677.56512
2896.00000,588.92737
2898.00000,800.88458
2900.00000,972.18799
2902.00000,856.52625
2904.00000,1091.00391
2906.00000,1254.78418
2908.00000,1261.27747
2910.00000,1302.95593
2912.00000,1400.65149
2914.00000,1373.46008
2916.00000,1346.09851
2918.00000,1432.49451
2920.00000,1555.25989
2922.00000,1622.13232
2924.00000,1723.51648
2926.00000,1818.38025
2928.00000,1848.57361
2930.00000,1945.32703
2932.00000,1955.47668
2934.00000,2077.71606
2936.00000,2383.18970
2938.00000,2505.40332
2940.00000,2631.97925
2942.00000,2836.06274
2944.00000,2979.62280
2946.00000,3007.00977
2948.00000,3254.79761
2950.00000,3560.10132
2952.00000,3724.23315
2954.00000,3878.30054
2956.00000,4280.31934
2958.00000,4415.83301
2960.00000,4316.19727
2962.00000,4335.20850
2964.00000,4363.42432
2966.00000,4419.19043
2968.00000,4355.42480
2970.00000,4131.86475
2972.00000,3926.37744
2974.00000,3627.28125
2976.00000,3338.26025
2978.00000,3138.23560
2980.00000,2939.07935
2982.00000,2709.48242
2984.00000,2597.81055
2986.00000,2410.88794
2988.00000,2020.37659
2990.00000,1921.27856
2992.00000,1692.76123
2994.00000,1517.98242
2996.00000,1660.35498
2998.00000,1615.35950
3000.00000,1364.05078
3002.00000,1279.95410
3004.00000,1340.34814
3006.00000,1141.42224
3008.00000,1097.39575
3010.00000,1200.80688
3012.00000,1192.37122
3014.00000,1051.95593
3016.00000,1135.84192
3018.00000,1085.60010
3020.00000,929.59290
3022.00000,868.04675
3024.00000,620.21130
3026.00000,708.19519
3028.00000,843.52582
3030.00000,668.26202
3032.00000,588.12836
3034.00000,487.80283
3036.00000,300.15604
3038.00000,238.38904
3040.00000,458.21109
3042.00000,475.02213
3044.00000,394.74658
3046.00000,268.40765
3048.00000,56.47346
3050.00000,107.29788
3052.00000,134.79898
3054.00000,143.56314
3056.00000,268.97589
3058.00000,291.31998
3060.00000,356.02649
3062.00000,291.02484
3064.00000,135.45760
3066.00000,271.76111
3068.00000,241.31122
3070.00000,272.91074
3072.00000,428.89050
3074.00000,340.02246
3076.00000,183.76372
3078.00000,147.47662
3080.00000,108.07450
3082.00000,63.24101
3084.00000,460.46829
3086.00000,539.59204
3088.00000,374.69644
3090.00000,363.71790
3092.00000,223.72827
3094.00000,307.24368
3096.00000,433.18118
3098.00000,377.73666
3100.00000,347.79639
3102.00000,420.45486
3104.00000,310.35910
3106.00000,131.99348
3108.00000,217.72073
3110.00000,210.73721
3112.00000,306.64575
3114.00000,452.04718
3116.00000,394.68146
3118.00000,273.86548
3120.00000,289.87750
3122.00000,303.31699
3124.00000,353.67654
3126.00000,693.86432
3128.00000,444.04105
3130.00000,188.89372
3132.00000,262.75757
3134.00000,69.96143
3136.00000,115.10177
3138.00000,209.82896
3140.00000,204.48628
3142.00000,204.69978
3144.00000,95.89462
3146.00000,171.37955
3148.00000,146.57149
3150.00000,-2.19083
3152.00000,566.77417
3154.00000,718.40430
3156.00000,484.72775
3158.00000,350.51901
3160.00000,141.30800
3162.00000,174.09160
3164.00000,380.96182
3166.00000,418.14603
3168.00000,260.68570
3170.00000,503.65289
3172.00000,314.36395
3174.00000,13.71644
3176.00000,285.90176
3178.00000,-0.68352
3180.00000,403.74988
3182.00000,678.73956
3184.00000,-7.24841
3186.00000,93.15885
3188.00000,319.31467
3190.00000,264.42310
3192.00000,233.97443
3194.00000,481.16980
3196.00000,467.01791
3198.00000,181.37999
3200.00000,142.64171
