300.00000,1688.78003
302.00000,1476.33618
304.00000,1223.51306
306.00000,1025.09119
308.00000,834.02698
310.00000,675.78699
312.00000,589.47351
314.00000,490.22491
316.00000,443.24777
318.00000,367.12311
320.00000,308.67001
322.00000,437.41403
324.00000,494.81305
326.00000,506.05359
328.00000,517.67554
330.00000,508.53372
332.00000,527.08044
334.00000,549.85736
336.00000,477.81104
338.00000,365.77066
340.00000,392.45316
342.00000,415.49673
344.00000,523.28040
346.00000,722.66730
348.00000,907.27478
350.00000,1126.91895
352.00000,1362.95093
354.00000,1547.54504
356.00000,1633.17798
358.00000,1623.95203
360.00000,1533.15063
362.00000,1396.93188
364.00000,1241.05176
366.00000,1049.88770
368.00000,796.73523
370.00000,608.95148
372.00000,511.35938
374.00000,447.87515
376.00000,411.55872
378.00000,409.44876
380.00000,381.51938
382.00000,312.11514
384.00000,256.01138
386.00000,232.56087
388.00000,234.63037
390.00000,179.37039
392.00000,80.71742
394.00000,104.98887
396.00000,124.47246
398.00000,61.10243
400.00000,23.82740
402.00000,104.96624
404.00000,80.77176
406.00000,50.69423
408.00000,68.82719
410.00000,95.08500
412.00000,150.82909
414.00000,152.38078
416.00000,147.56535
418.00000,190.09187
420.00000,216.35741
422.00000,156.40469
424.00000,127.37643
426.00000,151.15352
428.00000,148.74040
430.00000,134.01790
432.00000,160.71083
434.00000,195.41779
436.00000,192.59505
438.00000,166.25720
440.00000,135.86847
442.00000,138.07719
444.00000,167.42989
446.00000,191.91855
448.00000,217.11049
450.00000,257.36078
452.00000,319.99765
454.00000,392.96411
456.00000,449.55121
458.00000,478.91171
460.00000,492.79315
462.00000,548.13654
464.00000,617.50946
466.00000,514.79059
468.00000,449.65173
470.00000,431.52170
472.00000,393.49194
474.00000,424.22409
476.00000,419.02679
478.00000,363.59628
480.00000,306.80536
482.00000,275.82712
484.00000,259.65289
486.00000,271.23303
488.00000,305.96475
490.00000,314.21600
492.00000,257.50378
494.00000,250.00096
496.00000,262.51086
498.00000,261.69778
500.00000,267.14191
502.00000,221.59737
504.00000,201.25070
506.00000,197.67465
508.00000,167.74231
510.00000,166.07703
512.00000,171.23790
514.00000,163.87381
516.00000,157.58949
518.00000,187.41710
520.00000,266.21619
522.00000,313.12704
524.00000,341.89160
526.00000,432.46924
528.00000,545.87775
530.00000,497.35550
532.00000,500.77115
534.00000,564.74438
536.00000,417.98108
538.00000,459.11398
540.00000,412.72736
542.00000,268.30261
544.00000,270.74307
546.00000,226.79013
548.00000,193.06500
550.00000,195.86490
552.00000,202.62228
554.00000,202.44124
556.00000,192.83777
558.00000,149.81178
560.00000,171.28719
562.00000,294.48810
564.00000,295.56732
566.00000,401.52716
568.00000,507.10468
570.00000,484.97937
572.00000,544.37238
574.00000,635.39465
576.00000,610.90570
578.00000,548.61200
580.00000,590.40778
582.00000,553.01263
584.00000,511.53836
586.00000,517.87488
588.00000,538.21765
590.00000,534.34576
592.00000,466.05246
594.00000,409.36548
596.00000,408.64993
598.00000,419.99973
600.00000,420.78473
602.00000,412.70123
604.00000,404.11145
606.00000,391.84396
608.00000,364.20557
610.00000,341.72626
612.00000,342.09509
614.00000,348.92206
616.00000,328.89285
618.00000,287.01868
620.00000,240.01161
622.00000,219.10338
624.00000,248.91431
626.00000,299.46646
628.00000,264.06207
630.00000,266.47339
632.00000,271.59021
634.00000,120.97108
636.00000,173.05171
638.00000,212.68539
640.00000,173.61470
642.00000,189.35922
644.00000,160.76324
646.00000,152.47874
648.00000,154.90964
650.00000,163.54538
652.00000,199.38193
654.00000,127.81061
656.00000,200.94315
658.00000,380.96960
660.00000,444.81406
662.00000,565.13556
664.00000,650.12622
666.00000,700.02130
668.00000,740.70868
670.00000,707.47931
672.00000,637.15765
674.00000,557.74701
676.00000,493.46109
678.00000,458.72870
680.00000,428.18457
682.00000,378.20731
684.00000,337.29761
686.00000,323.75864
688.00000,305.83316
690.00000,292.39975
692.00000,257.70422
694.00000,209.70847
696.00000,195.00215
698.00000,210.22134
700.00000,200.01805
702.00000,159.50110
704.00000,127.76471
706.00000,123.88036
708.00000,121.30830
710.00000,111.44999
712.00000,154.35269
714.00000,276.81689
716.00000,335.46118
718.00000,428.15903
720.00000,552.21082
722.00000,659.09338
724.00000,849.52539
726.00000,1121.97668
728.00000,1387.59631
730.00000,1628.71484
732.00000,1896.49768
734.00000,2127.14307
736.00000,2337.19067
738.00000,2548.84961
740.00000,2737.56958
742.00000,2860.51099
744.00000,2938.11304
746.00000,2986.92554
748.00000,2997.01074
750.00000,2941.14624
752.00000,2798.74634
754.00000,2587.56787
756.00000,2337.51001
758.00000,2066.31812
760.00000,1780.24792
762.00000,1507.93896
764.00000,1244.80908
766.00000,1006.62646
768.00000,843.77032
770.00000,733.48053
772.00000,637.63977
774.00000,546.90649
776.00000,487.89386
778.00000,481.34406
780.00000,453.54001
782.00000,435.60312
784.00000,450.31308
786.00000,412.21838
788.00000,329.31946
790.00000,288.03967
792.00000,296.93387
794.00000,295.59253
796.00000,288.60492
798.00000,238.94574
800.00000,193.11882
802.00000,186.30064
804.00000,163.31569
806.00000,162.01056
808.00000,139.17696
810.00000,116.55574
812.00000,158.72952
814.00000,188.29237
816.00000,321.23016
818.00000,543.69318
820.00000,818.40997
822.00000,1257.70813
824.00000,1773.30640
826.00000,2254.39551
828.00000,2601.57031
830.00000,2744.89136
832.00000,2692.66992
834.00000,2452.05347
836.00000,2118.87817
838.00000,1800.10303
840.00000,1505.89294
842.00000,1283.05347
844.00000,1145.26770
846.00000,1067.36328
848.00000,1015.21210
850.00000,972.20056
852.00000,918.83936
854.00000,849.68622
856.00000,796.83704
858.00000,825.72595
860.00000,951.02393
862.00000,1038.69897
864.00000,1088.44873
866.00000,1221.45569
868.00000,1191.00342
870.00000,1073.17542
872.00000,932.53516
874.00000,751.08075
876.00000,622.95093
878.00000,489.91049
880.00000,376.15491
882.00000,319.82718
884.00000,283.57523
886.00000,279.79517
888.00000,273.61829
890.00000,268.93973
892.00000,289.79147
894.00000,292.07581
896.00000,314.33710
898.00000,347.86026
900.00000,369.55106
902.00000,393.93222
904.00000,387.73022
906.00000,347.72534
908.00000,298.36633
910.00000,266.53308
912.00000,256.12219
914.00000,223.13904
916.00000,194.71979
918.00000,209.08745
920.00000,224.03598
922.00000,201.26991
924.00000,175.22847
926.00000,161.22688
928.00000,141.05457
930.00000,147.55321
932.00000,155.13539
934.00000,162.20326
936.00000,157.73251
938.00000,100.69697
940.00000,102.76611
942.00000,151.22195
944.00000,163.32924
946.00000,127.79060
948.00000,129.67577
950.00000,106.71925
952.00000,118.86559
954.00000,234.67863
956.00000,297.13275
958.00000,257.86014
960.00000,257.84558
962.00000,351.73300
964.00000,388.38037
966.00000,290.29514
968.00000,235.54228
970.00000,231.79666
972.00000,176.78012
974.00000,167.01241
976.00000,160.28461
978.00000,150.15929
980.00000,147.81816
982.00000,137.09938
984.00000,142.42345
986.00000,163.66216
988.00000,174.13547
990.00000,167.56468
992.00000,176.50919
994.00000,135.30597
996.00000,100.97096
998.00000,119.56135
1000.00000,117.58652
1002.00000,127.82819
1004.00000,128.22749
1006.00000,110.35788
1008.00000,101.58456
1010.00000,95.97401
1012.00000,72.13902
1014.00000,78.78459
1016.00000,111.08122
1018.00000,89.78988
1020.00000,170.71730
1022.00000,254.58162
1024.00000,289.62296
1026.00000,357.59805
1028.00000,385.27490
1030.00000,400.68097
1032.00000,414.16107
1034.00000,412.32721
1036.00000,412.07678
1038.00000,412.74167
1040.00000,380.82413
1042.00000,322.71252
1044.00000,276.60028
1046.00000,222.82550
1048.00000,210.68697
1050.00000,219.19446
1052.00000,194.63069
1054.00000,162.29518
1056.00000,147.40640
1058.00000,133.36789
1060.00000,109.85152
1062.00000,95.31789
1064.00000,93.41110
1066.00000,103.39257
1068.00000,115.92729
1070.00000,109.34021
1072.00000,77.93362
1074.00000,107.66426
1076.00000,142.93683
1078.00000,135.91669
1080.00000,135.31032
1082.00000,100.23976
1084.00000,111.47791
1086.00000,110.70910
1088.00000,47.63245
1090.00000,124.43205
1092.00000,121.88431
1094.00000,104.74422
1096.00000,153.05653
1098.00000,104.41206
1100.00000,65.21635
1102.00000,69.18519
1104.00000,75.82134
1106.00000,75.04268
1108.00000,124.26801
1110.00000,161.35785
1112.00000,172.25723
1114.00000,160.89749
1116.00000,120.44154
1118.00000,175.13211
1120.00000,259.24460
1122.00000,260.13092
1124.00000,207.19757
1126.00000,257.94714
1128.00000,310.99216
1130.00000,298.93863
1132.00000,275.49991
1134.00000,288.28513
1136.00000,231.54761
1138.00000,173.26732
1140.00000,160.96912
1142.00000,135.22952
1144.00000,110.99334
1146.00000,113.41722
1148.00000,109.84721
1150.00000,89.14451
1152.00000,106.55444
1154.00000,90.01974
1156.00000,136.33365
1158.00000,226.28508
1160.00000,209.81352
1162.00000,221.98119
1164.00000,196.96849
1166.00000,178.76038
1168.00000,214.61360
1170.00000,151.77106
1172.00000,144.07872
1174.00000,129.26953
1176.00000,79.70289
1178.00000,107.11979
1180.00000,55.92257
1182.00000,47.28063
1184.00000,82.48858
1186.00000,69.43758
1188.00000,102.63475
1190.00000,90.66364
1192.00000,65.77840
1194.00000,91.08598
1196.00000,135.04482
1198.00000,193.55176
1200.00000,224.27379
1202.00000,257.86371
1204.00000,356.25137
1206.00000,484.87546
1208.00000,656.51306
1210.00000,881.74335
1212.00000,1174.58923
1214.00000,1553.77417
1216.00000,1997.31213
1218.00000,2580.54541
1220.00000,3128.21313
1222.00000,3397.09302
1224.00000,3546.44409
1226.00000,3396.67749
1228.00000,3067.24585
1230.00000,2697.81177
1232.00000,2153.84424
1234.00000,1708.87012
1236.00000,1342.75671
1238.00000,1016.28827
1240.00000,810.43304
1242.00000,676.51843
1244.00000,602.53864
1246.00000,568.65393
1248.00000,532.23004
1250.00000,468.58344
1252.00000,422.25800
1254.00000,370.77588
1256.00000,299.51251
1258.00000,251.53954
1260.00000,253.90451
1262.00000,245.72632
1264.00000,221.73714
1266.00000,211.33426
1268.00000,206.60153
1270.00000,262.11118
1272.00000,302.73477
1274.00000,324.50916
1276.00000,436.46979
1278.00000,573.98431
1280.00000,690.65735
1282.00000,728.24304
1284.00000,696.31244
1286.00000,716.01868
1288.00000,690.32288
1290.00000,578.24591
1292.00000,448.21536
1294.00000,383.84891
1296.00000,366.45959
1298.00000,314.23352
1300.00000,250.29469
1302.00000,237.06317
1304.00000,217.72845
1306.00000,208.03529
1308.00000,190.68741
1310.00000,192.31715
1312.00000,281.31384
1314.00000,337.15317
1316.00000,295.28192
1318.00000,271.09088
1320.00000,326.67792
1322.00000,244.70409
1324.00000,233.75742
1326.00000,253.74295
1328.00000,185.32880
1330.00000,137.30457
1332.00000,99.96979
1334.00000,83.25117
1336.00000,74.85500
1338.00000,51.70966
1340.00000,58.07757
1342.00000,92.62326
1344.00000,115.89974
1346.00000,110.94024
1348.00000,119.90785
1350.00000,182.65160
1352.00000,234.24684
1354.00000,221.83881
1356.00000,195.40404
1358.00000,250.28238
1360.00000,319.81482
1362.00000,346.19058
1364.00000,341.71860
1366.00000,336.23032
1368.00000,324.01089
1370.00000,321.56631
1372.00000,306.86386
1374.00000,236.88284
1376.00000,171.57985
1378.00000,153.72475
1380.00000,163.53665
1382.00000,161.53848
1384.00000,157.14780
1386.00000,197.65833
1388.00000,221.12497
1390.00000,204.89719
1392.00000,222.80930
1394.00000,248.22708
1396.00000,210.26952
1398.00000,158.29857
1400.00000,160.55086
1402.00000,137.56970
1404.00000,122.34284
1406.00000,157.58092
1408.00000,178.59081
1410.00000,99.25683
1412.00000,77.65839
1414.00000,68.80547
1416.00000,39.24150
1418.00000,35.01477
1420.00000,40.22350
1422.00000,37.68354
1424.00000,56.73195
1426.00000,108.74614
1428.00000,143.06113
1430.00000,131.90887
1432.00000,141.43855
1434.00000,217.02649
1436.00000,330.28305
1438.00000,426.19867
1440.00000,464.74228
1442.00000,577.12439
1444.00000,751.99597
1446.00000,777.35175
1448.00000,955.31683
1450.00000,1055.99377
1452.00000,986.61560
1454.00000,976.74713
1456.00000,937.56750
1458.00000,921.16785
1460.00000,939.12201
1462.00000,931.93738
1464.00000,896.54834
1466.00000,957.80133
1468.00000,986.30432
1470.00000,972.85144
1472.00000,1050.99609
1474.00000,1033.10425
1476.00000,1012.35809
1478.00000,960.09509
1480.00000,827.41437
1482.00000,754.07922
1484.00000,548.85675
1486.00000,376.81268
1488.00000,321.22318
1490.00000,205.15099
1492.00000,152.89699
1494.00000,101.06635
1496.00000,60.67471
1498.00000,86.92966
1500.00000,86.79087
1502.00000,73.34904
1504.00000,103.17449
1506.00000,144.44556
1508.00000,129.95242
1510.00000,179.11531
1512.00000,146.88007
1514.00000,64.50769
1516.00000,78.05640
1518.00000,70.99036
1520.00000,59.63618
1522.00000,50.53730
1524.00000,48.34070
1526.00000,63.20351
1528.00000,19.01906
1530.00000,49.86436
1532.00000,121.29775
1534.00000,84.18438
1536.00000,60.86139
1538.00000,92.26804
1540.00000,140.53719
1542.00000,150.38423
1544.00000,116.38380
1546.00000,123.63874
1548.00000,162.53735
1550.00000,204.41507
1552.00000,221.47874
1554.00000,157.97504
1556.00000,169.75696
1558.00000,163.51808
1560.00000,103.09561
1562.00000,208.49808
1564.00000,157.66287
1566.00000,136.52399
1568.00000,178.81863
1570.00000,68.41088
1572.00000,113.60604
1574.00000,206.94118
1576.00000,207.66313
1578.00000,153.90529
1580.00000,171.74551
1582.00000,269.20166
1584.00000,217.44693
1586.00000,87.02627
1588.00000,162.95580
1590.00000,155.98520
1592.00000,105.50013
1594.00000,82.51279
1596.00000,96.53887
1598.00000,172.32292
1600.00000,138.76173
1602.00000,114.86388
1604.00000,145.11653
1606.00000,94.28461
1608.00000,168.83611
1610.00000,229.67555
1612.00000,185.88542
1614.00000,159.08023
1616.00000,244.78409
1618.00000,243.92497
1620.00000,247.66354
1622.00000,287.64346
1624.00000,171.16954
1626.00000,99.51646
1628.00000,112.47009
1630.00000,173.52542
1632.00000,202.76756
1634.00000,79.55417
1636.00000,66.24906
1638.00000,147.72427
1640.00000,177.05052
1642.00000,182.08630
1644.00000,185.36771
1646.00000,142.05894
1648.00000,102.36421
1650.00000,141.59517
1652.00000,160.67256
1654.00000,184.07553
1656.00000,150.84650
1658.00000,63.51354
1660.00000,88.49175
1662.00000,171.76233
1664.00000,157.61917
1666.00000,85.77045
1668.00000,114.05991
1670.00000,162.04037
1672.00000,201.63405
1674.00000,167.54538
1676.00000,82.85809
1678.00000,113.32170
1680.00000,173.73749
1682.00000,178.66768
1684.00000,150.24709
1686.00000,155.09319
1688.00000,163.55540
1690.00000,137.75943
1692.00000,117.78312
1694.00000,109.94328
1696.00000,38.28370
1698.00000,67.82468
1700.00000,83.37612
1702.00000,48.91000
1704.00000,112.22559
1706.00000,118.90388
1708.00000,148.83817
1710.00000,183.76967
1712.00000,144.92856
1714.00000,131.64977
1716.00000,139.34265
1718.00000,181.82355
1720.00000,215.38332
1722.00000,153.37453
1724.00000,95.91310
1726.00000,159.22614
1728.00000,205.27034
1730.00000,122.31393
1732.00000,166.23955
1734.00000,183.21883
1736.00000,132.99239
1738.00000,96.49751
1740.00000,96.99784
1742.00000,118.55673
1744.00000,151.19078
1746.00000,139.95305
1748.00000,110.63810
1750.00000,228.63486
1752.00000,149.85324
1754.00000,39.86618
1756.00000,162.55368
1758.00000,261.72000
1760.00000,108.20548
1762.00000,56.82227
1764.00000,183.07805
1766.00000,196.21844
1768.00000,208.56683
1770.00000,296.26236
1772.00000,333.35507
1774.00000,259.37485
1776.00000,240.87932
1778.00000,251.34572
1780.00000,267.19809
1782.00000,267.87039
1784.00000,238.28633
1786.00000,227.87073
1788.00000,260.92770
1790.00000,213.29050
1792.00000,90.86321
1794.00000,137.72261
1796.00000,131.44055
1798.00000,107.56166
1800.00000,197.66603
1802.00000,307.88629
1804.00000,182.46443
1806.00000,89.74379
1808.00000,167.09033
1810.00000,205.17456
1812.00000,47.23184
1814.00000,140.25940
1816.00000,218.89507
1818.00000,137.61269
1820.00000,223.92839
1822.00000,160.43599
1824.00000,135.37010
1826.00000,181.03665
1828.00000,121.78049
1830.00000,64.41606
1832.00000,170.02310
1834.00000,230.94057
1836.00000,117.80894
1838.00000,59.25399
1840.00000,125.31013
1842.00000,93.34098
1844.00000,59.13529
1846.00000,156.05501
1848.00000,23.62725
1850.00000,139.12148
1852.00000,295.81519
1854.00000,161.47662
1856.00000,64.96503
1858.00000,201.66927
1860.00000,209.08353
1862.00000,129.55775
1864.00000,289.60904
1866.00000,352.97156
1868.00000,271.28760
1870.00000,320.17838
1872.00000,433.32910
1874.00000,204.23512
1876.00000,278.35309
1878.00000,285.35269
1880.00000,213.06244
1882.00000,472.77805
1884.00000,383.75836
1886.00000,285.48465
1888.00000,387.87860
1890.00000,428.13577
1892.00000,255.47859
1894.00000,425.62601
1896.00000,514.73969
1898.00000,417.68988
1900.00000,578.60913
1902.00000,488.90375
1904.00000,396.80698
1906.00000,432.23325
1908.00000,407.78787
1910.00000,289.63263
1912.00000,352.39246
1914.00000,448.95963
1916.00000,389.48709
1918.00000,326.19418
1920.00000,471.02686
1922.00000,395.84998
1924.00000,309.21957
1926.00000,480.30060
1928.00000,318.55026
1930.00000,482.08319
1932.00000,393.46033
1934.00000,17.44747
1936.00000,295.87604
1938.00000,89.83402
1940.00000,136.27834
1942.00000,390.48376
1944.00000,145.33505
1946.00000,119.68240
1948.00000,158.97943
1950.00000,150.16864
1952.00000,148.86705
1954.00000,130.22838
1956.00000,64.00469
1958.00000,285.14200
1960.00000,411.64941
1962.00000,88.33025
1964.00000,272.37460
1966.00000,147.10399
1968.00000,105.61800
1970.00000,453.52524
1972.00000,244.44994
1974.00000,233.19354
1976.00000,314.65372
1978.00000,263.97781
1980.00000,265.80826
1982.00000,343.39972
1984.00000,336.50607
1986.00000,344.77145
1988.00000,405.46661
1990.00000,295.96310
1992.00000,301.34311
1994.00000,236.54640
1996.00000,133.86900
1998.00000,258.69415
2000.00000,270.34808
2002.00000,269.24655
2004.00000,308.51331
2006.00000,281.27084
2008.00000,211.02376
2010.00000,288.04532
2012.00000,335.30115
2014.00000,183.23563
2016.00000,283.11768
2018.00000,220.98508
2020.00000,118.89455
2022.00000,231.28648
2024.00000,175.28705
2026.00000,147.59848
2028.00000,172.67744
2030.00000,175.89264
2032.00000,176.78612
2034.00000,109.81553
2036.00000,78.05644
2038.00000,104.32558
2040.00000,101.69955
2042.00000,126.80067
2044.00000,126.92434
2046.00000,103.52574
2048.00000,98.66347
2050.00000,78.93147
2052.00000,76.85423
2054.00000,82.60799
2056.00000,72.64954
2058.00000,63.50464
2060.00000,51.00177
2062.00000,49.87133
2064.00000,61.49809
2066.00000,82.22346
2068.00000,157.93370
2070.00000,153.31874
2072.00000,106.21624
2074.00000,143.58896
2076.00000,92.89016
2078.00000,91.97068
2080.00000,109.45018
2082.00000,52.21523
2084.00000,67.20187
2086.00000,64.29109
2088.00000,73.95599
2090.00000,120.56356
2092.00000,95.56655
2094.00000,56.89350
2096.00000,102.29519
2098.00000,165.46751
2100.00000,114.96557
2102.00000,102.18658
2104.00000,91.28389
2106.00000,89.12311
2108.00000,127.54964
2110.00000,84.80196
2112.00000,99.06805
2114.00000,153.28481
2116.00000,129.50974
2118.00000,80.39240
2120.00000,168.56851
2122.00000,201.30162
2124.00000,93.83034
2126.00000,89.23170
2128.00000,104.95806
2130.00000,111.98341
2132.00000,121.32789
2134.00000,119.17110
2136.00000,94.00774
2138.00000,118.02752
2140.00000,175.83958
2142.00000,183.19832
2144.00000,142.35196
2146.00000,150.27969
2148.00000,147.08234
2150.00000,99.05746
2152.00000,131.46686
2154.00000,127.74911
2156.00000,80.19799
2158.00000,99.86301
2160.00000,209.73273
2162.00000,163.34007
2164.00000,124.25117
2166.00000,160.69342
2168.00000,133.76996
2170.00000,95.29820
2172.00000,78.48669
2174.00000,81.57020
2176.00000,90.24500
2178.00000,92.02750
2180.00000,70.84561
2182.00000,84.93103
2184.00000,118.37083
2186.00000,71.16058
2188.00000,103.87143
2190.00000,127.86137
2192.00000,79.19260
2194.00000,63.03672
2196.00000,80.71062
2198.00000,120.47944
2200.00000,132.40370
2202.00000,89.27177
2204.00000,73.27290
2206.00000,97.95419
2208.00000,112.14948
2210.00000,93.28278
2212.00000,87.64824
2214.00000,57.70035
2216.00000,49.95430
2218.00000,88.33928
2220.00000,99.96347
2222.00000,74.31168
2224.00000,76.75561
2226.00000,90.03464
2228.00000,60.74564
2230.00000,94.66033
2232.00000,75.86420
2234.00000,43.20201
2236.00000,97.84579
2238.00000,97.82501
2240.00000,95.79934
2242.00000,89.21669
2244.00000,67.76765
2246.00000,103.15257
2248.00000,142.69798
2250.00000,134.26181
2252.00000,92.94776
2254.00000,74.62834
2256.00000,76.43655
2258.00000,78.51591
2260.00000,69.85584
2262.00000,55.60533
2264.00000,54.87381
2266.00000,99.31623
2268.00000,122.00950
2270.00000,79.66635
2272.00000,90.95331
2274.00000,163.84859
2276.00000,194.57027
2278.00000,123.75142
2280.00000,50.32446
2282.00000,119.09821
2284.00000,162.17015
2286.00000,110.66991
2288.00000,127.99097
2290.00000,181.52968
2292.00000,161.10223
2294.00000,102.84584
2296.00000,117.64848
2298.00000,150.69559
2300.00000,116.66939
2302.00000,83.42110
2304.00000,138.88531
2306.00000,195.72127
2308.00000,128.45171
2310.00000,93.43919
2312.00000,163.69955
2314.00000,158.94978
2316.00000,146.58742
2318.00000,122.73225
2320.00000,87.77811
2322.00000,94.55174
2324.00000,139.30658
2326.00000,117.40103
2328.00000,114.84531
2330.00000,202.03497
2332.00000,137.18594
2334.00000,73.40289
2336.00000,93.40923
2338.00000,116.06542
2340.00000,75.83618
2342.00000,78.62419
2344.00000,81.04124
2346.00000,83.22592
2348.00000,157.61855
2350.00000,115.51133
2352.00000,119.21616
2354.00000,178.69145
2356.00000,130.30179
2358.00000,127.49863
2360.00000,167.69077
2362.00000,150.24400
2364.00000,62.65806
2366.00000,53.50305
2368.00000,122.76723
2370.00000,131.04404
2372.00000,53.48557
2374.00000,59.67413
2376.00000,127.76393
2378.00000,133.40039
2380.00000,78.55379
2382.00000,70.73396
2384.00000,52.93119
2386.00000,131.64398
2388.00000,234.30682
2390.00000,197.13657
2392.00000,155.62939
2394.00000,198.36542
2396.00000,189.03136
2398.00000,101.32069
2400.00000,185.54651
2402.00000,159.71147
2404.00000,129.22591
2406.00000,199.23225
2408.00000,150.64603
2410.00000,75.62869
2412.00000,107.72896
2414.00000,170.58229
2416.00000,113.76868
2418.00000,89.45001
2420.00000,90.68399
2422.00000,75.36976
2424.00000,74.13030
2426.00000,137.24194
2428.00000,122.61668
2430.00000,139.45551
2432.00000,237.33548
2434.00000,164.36876
2436.00000,96.99065
2438.00000,149.15581
2440.00000,189.50067
2442.00000,75.57263
2444.00000,98.53181
2446.00000,167.51071
2448.00000,143.03351
2450.00000,102.93633
2452.00000,185.18018
2454.00000,164.01888
2456.00000,103.26693
2458.00000,154.75320
2460.00000,106.96320
2462.00000,92.43394
2464.00000,122.53214
2466.00000,126.61870
2468.00000,136.46591
2470.00000,192.75864
2472.00000,198.82764
2474.00000,147.03284
2476.00000,147.94492
2478.00000,141.97430
2480.00000,98.39450
2482.00000,83.93040
2484.00000,137.10378
2486.00000,128.86836
2488.00000,85.48305
2490.00000,70.74782
2492.00000,109.41499
2494.00000,167.89711
2496.00000,150.64264
2498.00000,108.21196
2500.00000,101.12826
2502.00000,90.48335
2504.00000,90.95574
2506.00000,133.39578
2508.00000,180.69286
2510.00000,174.74747
2512.00000,172.01263
2514.00000,140.60756
2516.00000,98.38419
2518.00000,99.39706
2520.00000,116.67213
2522.00000,125.38129
2524.00000,105.57284
2526.00000,94.64066
2528.00000,152.54858
2530.00000,131.81483
2532.00000,95.77936
2534.00000,95.70654
2536.00000,58.75716
2538.00000,87.98435
2540.00000,84.18014
2542.00000,76.30774
2544.00000,159.75343
2546.00000,119.13409
2548.00000,87.51830
2550.00000,130.08585
2552.00000,144.01242
2554.00000,73.48026
2556.00000,47.83317
2558.00000,86.49825
2560.00000,118.24793
2562.00000,117.38739
2564.00000,133.95793
2566.00000,148.62302
2568.00000,148.00809
2570.00000,162.07892
2572.00000,175.42877
2574.00000,138.06461
2576.00000,94.94363
2578.00000,128.10991
2580.00000,174.06590
2582.00000,100.29859
2584.00000,48.35752
2586.00000,146.69208
2588.00000,176.21788
2590.00000,86.56603
2592.00000,64.08984
2594.00000,156.87872
2596.00000,162.88651
2598.00000,137.53069
2600.00000,143.26085
2602.00000,189.58827
2604.00000,224.99075
2606.00000,165.76878
2608.00000,147.29704
2610.00000,123.01986
2612.00000,37.24831
2614.00000,150.77922
2616.00000,205.14165
2618.00000,127.76592
2620.00000,114.85139
2622.00000,251.32019
2624.00000,174.78949
2626.00000,55.83376
2628.00000,118.44492
2630.00000,198.76869
2632.00000,160.70872
2634.00000,176.75224
2636.00000,235.15112
2638.00000,161.06830
2640.00000,123.23747
2642.00000,218.09921
2644.00000,229.76628
2646.00000,76.84187
2648.00000,142.71492
2650.00000,135.13562
2652.00000,69.93246
2654.00000,114.96887
2656.00000,172.07559
2658.00000,148.33818
2660.00000,70.30407
2662.00000,74.74070
2664.00000,190.02565
2666.00000,101.70171
2668.00000,88.20942
2670.00000,191.76375
2672.00000,166.36116
2674.00000,146.08371
2676.00000,193.74709
2678.00000,219.55354
2680.00000,145.54211
2682.00000,69.78745
2684.00000,121.93625
2686.00000,140.18028
2688.00000,82.36662
2690.00000,168.36264
2692.00000,205.53922
2694.00000,122.95893
2696.00000,88.17849
2698.00000,195.30052
2700.00000,102.89281
2702.00000,55.29601
2704.00000,176.73662
2706.00000,258.99814
2708.00000,170.14905
2710.00000,160.82634
2712.00000,233.68837
2714.00000,198.57834
2716.00000,60.71845
2718.00000,126.88348
2720.00000,193.66736
2722.00000,118.80524
2724.00000,165.98140
2726.00000,330.53519
2728.00000,323.28824
2730.00000,224.25072
2732.00000,309.36127
2734.00000,295.45062
2736.00000,295.09818
2738.00000,343.55197
2740.00000,355.05472
2742.00000,364.76810
2744.00000,308.37799
2746.00000,248.13676
2748.00000,214.78667
2750.00000,127.23438
2752.00000,149.48090
2754.00000,152.99879
2756.00000,78.50287
2758.00000,77.06449
2760.00000,81.13624
2762.00000,42.36663
2764.00000,5.53618
2766.00000,41.45179
2768.00000,120.34776
2770.00000,120.73319
2772.00000,108.03329
2774.00000,161.11925
2776.00000,161.04611
2778.00000,179.88106
2780.00000,234.29671
2782.00000,231.27808
2784.00000,124.94569
2786.00000,153.02444
2788.00000,266.04819
2790.00000,311.61057
2792.00000,254.75342
2794.00000,193.50618
2796.00000,332.39362
2798.00000,409.99292
2800.00000,212.17354
2802.00000,287.12073
2804.00000,363.24902
2806.00000,221.92543
2808.00000,123.42741
2810.00000,391.68808
2812.00000,315.73898
2814.00000,181.87134
2816.00000,292.09348
2818.00000,257.44333
2820.00000,209.90005
2822.00000,352.48990
2824.00000,482.51581
2826.00000,411.81641
2828.00000,680.45850
2830.00000,792.04388
2832.00000,755.70691
2834.00000,975.67322
2836.00000,1211.53589
2838.00000,1244.93176
2840.00000,1381.62769
2842.00000,1687.18787
2844.00000,1668.56604
2846.00000,1679.23792
2848.00000,1756.61633
2850.00000,1787.72131
2852.00000,1792.52954
2854.00000,1765.77722
2856.00000,1688.09595
2858.00000,1536.66113
2860.00000,1354.94299
2862.00000,1255.97681
2864.00000,1024.28406
2866.00000,746.37427
2868.00000,620.89343
2870.00000,531.24811
2872.00000,458.13507
2874.00000,318.04718
2876.00000,219.11308
2878.00000,344.64743
2880.00000,173.27649
2882.00000,54.61110
2884.00000,248.43607
2886.00000,418.19449
2888.00000,419.23511
2890.00000,566.00372
2892.00000,740.75317
2894.00000,690.55353
2896.00000,814.92163
2898.00000,1003.49133
2900.00000,1054.17773
2902.00000,1039.65833
2904.00000,1227.75598
2906.00000,1413.37000
2908.00000,1516.49268
2910.00000,1519.26575
2912.00000,1416.07117
2914.00000,1456.52246
2916.00000,1497.06091
2918.00000,1556.56104
2920.00000,1802.38086
2922.00000,1926.33044
2924.00000,1788.52051
2926.00000,1836.75745
2928.00000,2176.24902
2930.00000,1980.21045
2932.00000,2169.58716
2934.00000,2495.66943
2936.00000,2508.29980
2938.00000,2760.75122
2940.00000,2768.76636
2942.00000,2767.80762
2944.00000,3003.03735
2946.00000,3185.47729
2948.00000,3246.50732
2950.00000,3548.69873
2952.00000,3898.48901
2954.00000,3945.88477
2956.00000,4246.25781
2958.00000,4371.74463
2960.00000,4276.76904
2962.00000,4359.36328
2964.00000,4603.42822
2966.00000,4350.65283
2968.00000,4239.72754
2970.00000,4405.04199
2972.00000,3816.64722
2974.00000,3554.70654
2976.00000,3471.07373
2978.00000,3204.29883
2980.00000,2977.46216
2982.00000,2795.39575
2984.00000,2634.86060
2986.00000,2401.84082
2988.00000,2103.74878
2990.00000,1959.35278
2992.00000,1691.87476
2994.00000,1616.20813
2996.00000,1844.32507
2998.00000,1658.13464
3000.00000,1503.45447
3002.00000,1544.91907
3004.00000,1477.93835
3006.00000,1181.47034
3008.00000,1364.33911
3010.00000,1393.25610
3012.00000,1158.39587
3014.00000,1276.46704
3016.00000,1274.19861
3018.00000,1027.89148
3020.00000,887.62439
3022.00000,998.10089
3024.00000,905.81122
3026.00000,981.04419
3028.00000,983.12891
3030.00000,790.64972
3032.00000,906.52484
3034.00000,670.34100
3036.00000,610.15015
3038.00000,772.18634
3040.00000,461.04474
3042.00000,671.06384
3044.00000,636.33661
3046.00000,325.82202
3048.00000,398.83896
3050.00000,71.73579
3052.00000,167.16144
3054.00000,508.78394
3056.00000,393.04251
3058.00000,269.45770
3060.00000,389.26205
3062.00000,359.87418
3064.00000,153.69064
3066.00000,310.93027
3068.00000,233.88493
3070.00000,143.49608
3072.00000,266.44858
3074.00000,303.24606
3076.00000,124.40588
3078.00000,-23.25442
3080.00000,57.85913
3082.00000,270.68326
3084.00000,340.14447
3086.00000,350.31650
3088.00000,389.11893
3090.00000,396.62006
3092.00000,302.73660
3094.00000,350.83170
3096.00000,482.54916
3098.00000,502.03607
3100.00000,436.84814
3102.00000,545.85248
3104.00000,259.69183
3106.00000,53.03224
3108.00000,655.04242
3110.00000,475.75388
3112.00000,446.50180
3114.00000,595.27057
3116.00000,283.84564
3118.00000,314.70715
3120.00000,335.74487
3122.00000,378.97803
3124.00000,491.33377
3126.00000,300.59619
3128.00000,353.80688
3130.00000,350.97525
3132.00000,191.75940
3134.00000,316.36188
3136.00000,312.70651
3138.00000,522.11938
3140.00000,683.57196
3142.00000,360.66931
3144.00000,447.38422
3146.00000,385.46841
3148.00000,293.86786
3150.00000,517.45416
3152.00000,450.26526
3154.00000,492.00653
3156.00000,425.60391
3158.00000,181.09702
3160.00000,302.72693
3162.00000,332.69403
3164.00000,598.64703
3166.00000,756.64441
3168.00000,268.61554
3170.00000,742.13129
3172.00000,554.31366
3174.00000,-2.61803
3176.00000,443.49390
3178.00000,189.96768
3180.00000,331.29019
3182.00000,456.50620
3184.00000,52.17771
3186.00000,443.76233
3188.00000,180.89922
3190.00000,181.89180
3192.00000,842.20209
3194.00000,556.31140
3196.00000,282.54349
3198.00000,200.00723
3200.00000,75.52943
