300.00000,1203.53162
302.00000,1065.91089
304.00000,930.25061
306.00000,796.05420
308.00000,667.60730
310.00000,537.83899
312.00000,417.99570
314.00000,353.79059
316.00000,298.36618
318.00000,280.27872
320.00000,281.39304
322.00000,245.79726
324.00000,327.99365
326.00000,411.14688
328.00000,423.21451
330.00000,413.76456
332.00000,386.08490
334.00000,390.63879
336.00000,425.74072
338.00000,427.24719
340.00000,360.88376
342.00000,342.21439
344.00000,396.40945
346.00000,500.43503
348.00000,639.77490
350.00000,806.27136
352.00000,977.58752
354.00000,1121.25439
356.00000,1189.17139
358.00000,1161.35266
360.00000,1135.21643
362.00000,1054.06396
364.00000,912.68890
366.00000,784.58942
368.00000,641.69403
370.00000,544.14801
372.00000,479.58395
374.00000,412.95514
376.00000,369.71848
378.00000,318.62170
380.00000,263.33621
382.00000,227.61620
384.00000,220.96848
386.00000,229.26836
388.00000,228.13898
390.00000,184.35759
392.00000,124.57059
394.00000,127.95358
396.00000,108.65620
398.00000,103.85748
400.00000,101.92814
402.00000,47.31770
404.00000,99.40230
406.00000,125.19796
408.00000,100.27289
410.00000,96.27020
412.00000,69.66077
414.00000,105.04675
416.00000,158.03172
418.00000,137.15559
420.00000,64.60772
422.00000,78.40541
424.00000,118.61603
426.00000,129.85011
428.00000,136.60298
430.00000,155.49457
432.00000,154.46172
434.00000,76.19257
436.00000,13.38736
438.00000,123.99201
440.00000,207.19939
442.00000,194.14417
444.00000,158.37433
446.00000,144.04314
448.00000,88.55159
450.00000,138.44548
452.00000,233.97414
454.00000,251.65587
456.00000,236.25247
458.00000,265.21671
460.00000,313.64716
462.00000,343.99374
464.00000,366.66571
466.00000,390.71710
468.00000,309.08603
470.00000,247.87465
472.00000,309.23819
474.00000,332.87772
476.00000,298.64011
478.00000,253.13882
480.00000,222.63831
482.00000,212.05878
484.00000,245.57574
486.00000,267.24326
488.00000,254.67308
490.00000,238.94849
492.00000,247.48102
494.00000,253.32365
496.00000,246.81665
498.00000,227.46393
500.00000,200.88351
502.00000,198.40733
504.00000,224.09727
506.00000,232.06377
508.00000,195.63350
510.00000,162.52342
512.00000,151.04150
514.00000,135.99266
516.00000,129.20924
518.00000,148.49771
520.00000,107.74008
522.00000,170.60229
524.00000,234.46303
526.00000,156.89514
528.00000,188.84189
530.00000,290.15884
532.00000,360.26141
534.00000,355.52264
536.00000,304.53284
538.00000,277.14938
540.00000,249.48270
542.00000,220.20920
544.00000,215.44185
546.00000,209.12053
548.00000,185.13158
550.00000,158.47234
552.00000,153.48909
554.00000,174.16260
556.00000,194.05910
558.00000,189.23761
560.00000,174.82855
562.00000,192.63879
564.00000,258.26898
566.00000,329.05621
568.00000,371.51285
570.00000,394.51959
572.00000,412.78915
574.00000,373.01324
576.00000,382.43167
578.00000,423.18585
580.00000,387.09882
582.00000,382.91473
584.00000,379.99094
586.00000,401.40784
588.00000,449.93588
590.00000,429.33844
592.00000,394.49435
594.00000,394.70529
596.00000,409.36633
598.00000,389.42065
600.00000,346.37875
602.00000,320.97461
604.00000,329.06284
606.00000,354.96262
608.00000,368.64160
610.00000,338.59180
612.00000,304.83795
614.00000,300.49573
616.00000,308.24429
618.00000,310.03867
620.00000,279.32104
622.00000,245.22360
624.00000,244.28976
626.00000,251.76097
628.00000,263.92697
630.00000,252.54701
632.00000,223.03093
634.00000,220.60759
636.00000,233.61926
638.00000,247.75073
640.00000,235.26430
642.00000,198.88022
644.00000,199.37529
646.00000,207.81416
648.00000,187.94850
650.00000,150.59268
652.00000,138.96078
654.00000,155.66684
656.00000,174.67944
658.00000,175.39503
660.00000,173.27296
662.00000,223.36797
664.00000,344.92810
666.00000,378.30493
668.00000,324.76251
670.00000,386.46143
672.00000,330.92209
674.00000,279.99368
676.00000,290.84772
678.00000,256.83966
680.00000,246.99875
682.00000,261.47989
684.00000,253.34769
686.00000,229.80461
688.00000,246.47652
690.00000,220.44185
692.00000,173.53526
694.00000,162.18057
696.00000,175.50395
698.00000,151.58649
700.00000,156.31604
702.00000,129.99046
704.00000,56.60674
706.00000,94.40202
708.00000,124.53391
710.00000,117.01427
712.00000,104.00257
714.00000,98.98580
716.00000,112.23343
718.00000,128.52507
720.00000,184.66487
722.00000,284.34576
724.00000,347.68015
726.00000,462.74152
728.00000,641.99268
730.00000,843.80048
732.00000,1052.07654
734.00000,1274.93103
736.00000,1480.33472
738.00000,1679.36670
740.00000,1896.82605
742.00000,2098.80493
744.00000,2270.28687
746.00000,2437.75415
748.00000,2568.11377
750.00000,2579.05005
752.00000,2518.97241
754.00000,2424.26831
756.00000,2283.45605
758.00000,2089.88159
760.00000,1884.99805
762.00000,1647.28296
764.00000,1375.64893
766.00000,1132.23145
768.00000,979.42627
770.00000,844.88562
772.00000,716.07440
774.00000,617.16754
776.00000,553.99609
778.00000,504.00815
780.00000,473.42224
782.00000,448.10681
784.00000,422.96201
786.00000,417.67374
788.00000,404.82169
790.00000,365.48630
792.00000,317.97659
794.00000,285.28897
796.00000,246.82910
798.00000,214.05629
800.00000,201.95207
802.00000,203.35997
804.00000,195.08203
806.00000,179.83139
808.00000,165.58855
810.00000,138.49199
812.00000,117.43187
814.00000,196.70576
816.00000,225.08524
818.00000,272.44656
820.00000,464.08789
822.00000,687.46399
824.00000,972.98871
826.00000,1263.74292
828.00000,1489.96191
830.00000,1624.79358
832.00000,1613.25439
834.00000,1486.61743
836.00000,1274.23645
838.00000,1039.49573
840.00000,901.29083
842.00000,794.06818
844.00000,690.91675
846.00000,617.05151
848.00000,576.05621
850.00000,521.75824
852.00000,498.31415
854.00000,479.56244
856.00000,443.66574
858.00000,496.68088
860.00000,563.19086
862.00000,659.57336
864.00000,758.06378
866.00000,762.39972
868.00000,809.42145
870.00000,788.65039
872.00000,688.15027
874.00000,590.85010
876.00000,423.90005
878.00000,307.69626
880.00000,253.92026
882.00000,215.42955
884.00000,208.89708
886.00000,230.40036
888.00000,232.45229
890.00000,216.58481
892.00000,221.76895
894.00000,232.48326
896.00000,235.00801
898.00000,253.00922
900.00000,280.58109
902.00000,261.77551
904.00000,224.83603
906.00000,199.29761
908.00000,191.67894
910.00000,194.00607
912.00000,197.41696
914.00000,183.34370
916.00000,155.31808
918.00000,133.12549
920.00000,129.22597
922.00000,141.71873
924.00000,158.63994
926.00000,150.25305
928.00000,107.59225
930.00000,94.48481
932.00000,110.76179
934.00000,111.98560
936.00000,87.26730
938.00000,83.78641
940.00000,81.03082
942.00000,64.74940
944.00000,55.51659
946.00000,67.61289
948.00000,53.67511
950.00000,58.96341
952.00000,83.36848
954.00000,86.12171
956.00000,88.83496
958.00000,146.50858
960.00000,182.79173
962.00000,173.56787
964.00000,195.89107
966.00000,175.99168
968.00000,138.37602
970.00000,107.03902
972.00000,98.25978
974.00000,151.99245
976.00000,131.67868
978.00000,92.03372
980.00000,96.15002
982.00000,79.39660
984.00000,118.86734
986.00000,136.06758
988.00000,136.26753
990.00000,170.38551
992.00000,125.56806
994.00000,97.65432
996.00000,101.90008
998.00000,90.13229
1000.00000,75.35552
1002.00000,92.39287
1004.00000,76.17070
1006.00000,53.39476
1008.00000,86.58219
1010.00000,63.50438
1012.00000,65.40519
1014.00000,59.67307
1016.00000,22.20172
1018.00000,65.01809
1020.00000,92.26323
1022.00000,126.54967
1024.00000,175.44408
1026.00000,192.95290
1028.00000,227.15099
1030.00000,242.44730
1032.00000,247.84126
1034.00000,254.73618
1036.00000,223.36490
1038.00000,230.97845
1040.00000,228.18181
1042.00000,188.70494
1044.00000,169.00742
1046.00000,147.10745
1048.00000,135.96352
1050.00000,141.59781
1052.00000,157.85197
1054.00000,174.54219
1056.00000,131.75348
1058.00000,87.83727
1060.00000,90.24174
1062.00000,91.98924
1064.00000,73.77151
1066.00000,76.77162
1068.00000,57.68846
1070.00000,16.61645
1072.00000,99.09131
1074.00000,101.44644
1076.00000,109.36715
1078.00000,147.44589
1080.00000,61.66926
1082.00000,150.24249
1084.00000,187.82774
1086.00000,118.21127
1088.00000,114.00672
1090.00000,88.99045
1092.00000,108.02952
1094.00000,141.24500
1096.00000,133.02194
1098.00000,114.17392
1100.00000,95.93758
1102.00000,80.98762
1104.00000,75.48322
1106.00000,84.42590
1108.00000,101.40865
1110.00000,124.39874
1112.00000,154.45728
1114.00000,167.67320
1116.00000,139.97383
1118.00000,151.13611
1120.00000,185.62233
1122.00000,213.48022
1124.00000,220.21977
1126.00000,163.85318
1128.00000,151.42656
1130.00000,147.14447
1132.00000,104.44958
1134.00000,116.64412
1136.00000,93.15376
1138.00000,54.14965
1140.00000,62.83594
1142.00000,97.96324
1144.00000,68.17167
1146.00000,61.02302
1148.00000,78.09320
1150.00000,60.67628
1152.00000,49.12465
1154.00000,88.37310
1156.00000,110.29135
1158.00000,121.65073
1160.00000,185.93480
1162.00000,160.14598
1164.00000,138.90352
1166.00000,135.62128
1168.00000,117.33292
1170.00000,162.69466
1172.00000,104.98517
1174.00000,64.26141
1176.00000,100.33532
1178.00000,59.40201
1180.00000,63.72615
1182.00000,94.07408
1184.00000,101.93969
1186.00000,96.93470
1188.00000,106.09577
1190.00000,109.79781
1192.00000,88.52103
1194.00000,58.75455
1196.00000,59.43211
1198.00000,85.72632
1200.00000,98.61286
1202.00000,139.22685
1204.00000,243.25021
1206.00000,301.29642
1208.00000,353.30127
1210.00000,484.95370
1212.00000,677.43488
1214.00000,855.06616
1216.00000,1166.56458
1218.00000,1527.80908
1220.00000,1840.97058
1222.00000,2120.73560
1224.00000,2356.37915
1226.00000,2442.66602
1228.00000,2384.06616
1230.00000,2244.83691
1232.00000,2025.80371
1234.00000,1711.24243
1236.00000,1352.63953
1238.00000,1043.22083
1240.00000,833.27448
1242.00000,670.06915
1244.00000,551.57611
1246.00000,484.64197
1248.00000,434.43506
1250.00000,354.62946
1252.00000,319.62323
1254.00000,294.61783
1256.00000,240.72710
1258.00000,197.75357
1260.00000,194.02480
1262.00000,170.50128
1264.00000,147.82497
1266.00000,163.66312
1268.00000,164.50768
1270.00000,198.60405
1272.00000,282.38724
1274.00000,345.84821
1276.00000,345.35645
1278.00000,428.38705
1280.00000,519.73486
1282.00000,522.43762
1284.00000,470.07590
1286.00000,466.40976
1288.00000,442.92661
1290.00000,395.87421
1292.00000,362.70255
1294.00000,341.15344
1296.00000,307.82175
1298.00000,218.03383
1300.00000,143.94376
1302.00000,161.57474
1304.00000,167.39038
1306.00000,167.66104
1308.00000,170.69557
1310.00000,184.94870
1312.00000,229.50441
1314.00000,268.27188
1316.00000,288.49689
1318.00000,269.52518
1320.00000,226.44862
1322.00000,238.21748
1324.00000,156.46950
1326.00000,99.56245
1328.00000,156.64870
1330.00000,129.07143
1332.00000,80.70876
1334.00000,75.98036
1336.00000,96.89106
1338.00000,82.61309
1340.00000,26.40217
1342.00000,44.97693
1344.00000,72.13903
1346.00000,37.52521
1348.00000,61.83479
1350.00000,108.42782
1352.00000,123.49329
1354.00000,127.38953
1356.00000,167.62520
1358.00000,200.86383
1360.00000,207.36449
1362.00000,209.27042
1364.00000,227.06915
1366.00000,242.35295
1368.00000,236.02908
1370.00000,199.17255
1372.00000,152.64110
1374.00000,148.43405
1376.00000,213.68619
1378.00000,199.30876
1380.00000,131.92825
1382.00000,121.26827
1384.00000,112.75508
1386.00000,165.48744
1388.00000,208.29999
1390.00000,194.74178
1392.00000,189.21643
1394.00000,169.68936
1396.00000,160.99110
1398.00000,165.27875
1400.00000,156.13750
1402.00000,134.98837
1404.00000,115.03149
1406.00000,91.71822
1408.00000,63.61645
1410.00000,49.97350
1412.00000,63.87553
1414.00000,69.33286
1416.00000,63.64145
1418.00000,64.90079
1420.00000,46.94530
1422.00000,38.05848
1424.00000,30.23852
1426.00000,27.55946
1428.00000,64.96454
1430.00000,84.40394
1432.00000,121.10428
1434.00000,167.67400
1436.00000,189.62134
1438.00000,253.36090
1440.00000,262.91287
1442.00000,325.15482
1444.00000,491.81985
1446.00000,560.71936
1448.00000,624.55762
1450.00000,699.00952
1452.00000,729.93860
1454.00000,701.15283
1456.00000,671.78699
1458.00000,668.50720
1460.00000,628.48541
1462.00000,579.41589
1464.00000,650.27893
1466.00000,582.98877
1468.00000,606.48187
1470.00000,730.37915
1472.00000,663.94550
1474.00000,703.84338
1476.00000,680.33203
1478.00000,613.07196
1480.00000,597.94415
1482.00000,438.82291
1484.00000,307.89951
1486.00000,268.14664
1488.00000,222.74300
1490.00000,112.32119
1492.00000,73.55900
1494.00000,70.98845
1496.00000,66.92103
1498.00000,66.76905
1500.00000,52.70932
1502.00000,66.34460
1504.00000,71.29099
1506.00000,85.11231
1508.00000,156.52306
1510.00000,98.82520
1512.00000,94.53687
1514.00000,137.60475
1516.00000,99.35880
1518.00000,149.47456
1520.00000,124.04193
1522.00000,82.99543
1524.00000,125.10155
1526.00000,145.92889
1528.00000,124.65418
1530.00000,101.66238
1532.00000,79.82581
1534.00000,51.33151
1536.00000,73.92821
1538.00000,104.55790
1540.00000,91.82130
1542.00000,83.49158
1544.00000,153.59688
1546.00000,127.95679
1548.00000,95.10899
1550.00000,123.85948
1552.00000,140.19832
1554.00000,131.23492
1556.00000,80.62663
1558.00000,75.57751
1560.00000,146.56000
1562.00000,161.16933
1564.00000,130.12366
1566.00000,120.36164
1568.00000,115.95102
1570.00000,75.23640
1572.00000,97.94236
1574.00000,116.82117
1576.00000,108.74863
1578.00000,112.40340
1580.00000,127.37925
1582.00000,146.51651
1584.00000,164.05142
1586.00000,172.30554
1588.00000,175.24402
1590.00000,197.39464
1592.00000,174.52367
1594.00000,168.13997
1596.00000,206.71036
1598.00000,134.68376
1600.00000,148.27925
1602.00000,193.72696
1604.00000,177.73705
1606.00000,168.97507
1608.00000,149.56863
1610.00000,107.80227
1612.00000,63.57651
1614.00000,57.88880
1616.00000,106.01326
1618.00000,115.65363
1620.00000,119.75223
1622.00000,149.91646
1624.00000,158.43443
1626.00000,196.50667
1628.00000,131.85538
1630.00000,74.97370
1632.00000,177.21910
1634.00000,160.16170
1636.00000,122.89158
1638.00000,153.33128
1640.00000,160.45718
1642.00000,61.03327
1644.00000,105.02649
1646.00000,136.08029
1648.00000,60.78236
1650.00000,29.13787
1652.00000,84.72451
1654.00000,96.77018
1656.00000,110.28461
1658.00000,164.49091
1660.00000,126.92355
1662.00000,84.39452
1664.00000,104.20476
1666.00000,127.20898
1668.00000,94.08528
1670.00000,122.46896
1672.00000,146.08054
1674.00000,137.24397
1676.00000,123.78116
1678.00000,96.96455
1680.00000,64.04958
1682.00000,46.74294
1684.00000,51.01363
1686.00000,65.37741
1688.00000,93.11755
1690.00000,140.62251
1692.00000,178.31163
1694.00000,170.05844
1696.00000,128.84796
1698.00000,111.10172
1700.00000,140.98080
1702.00000,139.12183
1704.00000,77.43555
1706.00000,197.07941
1708.00000,164.69780
1710.00000,83.25947
1712.00000,215.05646
1714.00000,200.54065
1716.00000,105.00404
1718.00000,100.24634
1720.00000,169.25067
1722.00000,158.28934
1724.00000,138.95345
1726.00000,191.15321
1728.00000,199.16335
1730.00000,122.77613
1732.00000,228.99690
1734.00000,210.43137
1736.00000,123.10049
1738.00000,200.18826
1740.00000,338.80573
1742.00000,208.91620
1744.00000,252.86909
1746.00000,374.13339
1748.00000,204.68242
1750.00000,314.05759
1752.00000,229.19405
1754.00000,71.53204
1756.00000,186.82736
1758.00000,316.43686
1760.00000,230.73265
1762.00000,195.41890
1764.00000,240.70917
1766.00000,147.86873
1768.00000,122.16320
1770.00000,135.41745
1772.00000,144.61417
1774.00000,163.43517
1776.00000,193.43382
1778.00000,203.50552
1780.00000,164.21889
1782.00000,145.27711
1784.00000,179.26982
1786.00000,71.95379
1788.00000,95.97619
1790.00000,231.42175
1792.00000,224.56340
1794.00000,94.73027
1796.00000,91.01303
1798.00000,174.40315
1800.00000,161.44576
1802.00000,82.95493
1804.00000,254.60796
1806.00000,253.67511
1808.00000,161.07890
1810.00000,240.09006
1812.00000,135.03894
1814.00000,145.27307
1816.00000,200.17882
1818.00000,136.25720
1820.00000,101.04990
1822.00000,253.46478
1824.00000,254.47600
1826.00000,163.78168
1828.00000,206.95010
1830.00000,102.70018
1832.00000,104.30395
1834.00000,202.02888
1836.00000,243.23799
1838.00000,253.23705
1840.00000,304.06494
1842.00000,315.24252
1844.00000,300.84735
1846.00000,310.63907
1848.00000,240.61748
1850.00000,271.21167
1852.00000,362.00940
1854.00000,399.64279
1856.00000,404.33191
1858.00000,303.31024
1860.00000,313.60779
1862.00000,333.90915
1864.00000,221.18317
1866.00000,434.58829
1868.00000,336.65683
1870.00000,261.30594
1872.00000,477.97739
1874.00000,260.26971
1876.00000,263.46289
1878.00000,282.72351
1880.00000,163.41216
1882.00000,177.21954
1884.00000,150.06178
1886.00000,153.65120
1888.00000,199.55650
1890.00000,179.02992
1892.00000,70.18746
1894.00000,98.67048
1896.00000,149.75204
1898.00000,117.01065
1900.00000,115.99356
1902.00000,186.95226
1904.00000,176.47379
1906.00000,168.95918
1908.00000,213.72571
1910.00000,64.93467
1912.00000,28.95136
1914.00000,85.56411
1916.00000,111.83270
1918.00000,155.78235
1920.00000,200.74722
1922.00000,107.67725
1924.00000,74.47662
1926.00000,205.72942
1928.00000,105.68991
1930.00000,206.24356
1932.00000,266.17490
1934.00000,146.78322
1936.00000,251.92767
1938.00000,322.78384
1940.00000,325.96259
1942.00000,334.76056
1944.00000,341.12994
1946.00000,303.87848
1948.00000,391.16162
1950.00000,451.15521
1952.00000,413.23279
1954.00000,463.84088
1956.00000,365.04587
1958.00000,351.87808
1960.00000,425.96689
1962.00000,404.24844
1964.00000,526.66528
1966.00000,512.30042
1968.00000,405.60367
1970.00000,382.62622
1972.00000,362.32745
1974.00000,371.86050
1976.00000,462.84192
1978.00000,500.82675
1980.00000,364.23599
1982.00000,296.14310
1984.00000,246.67648
1986.00000,263.37463
1988.00000,310.73938
1990.00000,194.86461
1992.00000,278.87567
1994.00000,270.27548
1996.00000,122.67511
1998.00000,169.00914
2000.00000,137.07523
2002.00000,75.77328
2004.00000,107.55009
2006.00000,194.77121
2008.00000,161.25095
2010.00000,132.33168
2012.00000,116.52437
2014.00000,50.21493
2016.00000,108.77974
2018.00000,107.37921
2020.00000,96.90453
2022.00000,154.15193
2024.00000,82.76898
2026.00000,107.90540
2028.00000,127.17081
2030.00000,56.38047
2032.00000,77.80630
2034.00000,86.84653
2036.00000,73.17505
2038.00000,78.92142
2040.00000,88.05428
2042.00000,34.36421
2044.00000,44.56739
2046.00000,96.97659
2048.00000,79.04964
2050.00000,64.25453
2052.00000,101.80049
2054.00000,119.39674
2056.00000,88.20013
2058.00000,104.43820
2060.00000,89.66080
2062.00000,68.44035
2064.00000,69.22007
2066.00000,63.41547
2068.00000,106.44163
2070.00000,130.48132
2072.00000,96.56957
2074.00000,57.28478
2076.00000,54.18682
2078.00000,45.73086
2080.00000,61.29519
2082.00000,111.86582
2084.00000,85.40623
2086.00000,63.63083
2088.00000,87.43131
2090.00000,91.14635
2092.00000,28.08300
2094.00000,76.49842
2096.00000,106.66295
2098.00000,56.66183
2100.00000,61.79765
2102.00000,52.17876
2104.00000,82.21006
2106.00000,124.45911
2108.00000,97.15106
2110.00000,70.68613
2112.00000,53.52666
2114.00000,57.76184
2116.00000,89.53423
2118.00000,113.23586
2120.00000,112.41721
2122.00000,106.24735
2124.00000,87.42678
2126.00000,41.87555
2128.00000,82.39754
2130.00000,117.35484
2132.00000,83.89284
2134.00000,63.17852
2136.00000,103.19402
2138.00000,105.87115
2140.00000,94.80825
2142.00000,135.41606
2144.00000,119.01879
2146.00000,74.33627
2148.00000,57.81000
2150.00000,62.78499
2152.00000,45.80327
2154.00000,84.77274
2156.00000,122.84016
2158.00000,94.22459
2160.00000,57.53595
2162.00000,107.34471
2164.00000,129.90723
2166.00000,93.54043
2168.00000,95.46689
2170.00000,117.97050
2172.00000,77.14246
2174.00000,29.28841
2176.00000,45.04458
2178.00000,31.79304
2180.00000,32.55729
2182.00000,82.64954
2184.00000,126.29267
2186.00000,88.33832
2188.00000,84.64391
2190.00000,87.90356
2192.00000,63.57004
2194.00000,58.60619
2196.00000,66.06390
2198.00000,49.63389
2200.00000,42.00478
2202.00000,78.51287
2204.00000,76.86958
2206.00000,62.25675
2208.00000,56.92159
2210.00000,54.29221
2212.00000,56.41862
2214.00000,74.68517
2216.00000,70.72039
2218.00000,44.85524
2220.00000,53.68161
2222.00000,56.23177
2224.00000,82.38125
2226.00000,98.99733
2228.00000,62.23925
2230.00000,123.56374
2232.00000,153.19919
2234.00000,98.11444
2236.00000,55.30465
2238.00000,64.34918
2240.00000,66.88068
2242.00000,95.23849
2244.00000,132.16870
2246.00000,66.12870
2248.00000,119.43408
2250.00000,138.82178
2252.00000,44.15466
2254.00000,49.68481
2256.00000,76.78715
2258.00000,86.79948
2260.00000,84.12815
2262.00000,62.25131
2264.00000,13.69435
2266.00000,45.49209
2268.00000,82.39644
2270.00000,64.09119
2272.00000,165.31761
2274.00000,144.11110
2276.00000,59.87685
2278.00000,59.76781
2280.00000,62.92307
2282.00000,95.45531
2284.00000,102.03181
2286.00000,95.54827
2288.00000,136.95416
2290.00000,84.33904
2292.00000,48.32755
2294.00000,81.96103
2296.00000,109.78651
2298.00000,123.84798
2300.00000,104.13268
2302.00000,83.80253
2304.00000,83.31209
2306.00000,55.60725
2308.00000,55.43913
2310.00000,112.99358
2312.00000,157.42540
2314.00000,101.87737
2316.00000,77.33502
2318.00000,124.80856
2320.00000,159.67014
2322.00000,107.39091
2324.00000,69.34476
2326.00000,115.13856
2328.00000,148.79120
2330.00000,95.12480
2332.00000,107.42920
2334.00000,129.74811
2336.00000,96.81752
2338.00000,52.80521
2340.00000,85.14751
2342.00000,89.47189
2344.00000,99.73202
2346.00000,130.32600
2348.00000,99.75745
2350.00000,73.44859
2352.00000,66.70123
2354.00000,93.26212
2356.00000,148.79150
2358.00000,138.87776
2360.00000,96.48518
2362.00000,77.99607
2364.00000,80.86391
2366.00000,68.12387
2368.00000,124.97280
2370.00000,171.23819
2372.00000,130.46162
2374.00000,100.01474
2376.00000,111.16976
2378.00000,86.47190
2380.00000,47.48010
2382.00000,84.32766
2384.00000,60.94207
2386.00000,42.81725
2388.00000,64.59155
2390.00000,74.45573
2392.00000,84.86128
2394.00000,76.90926
2396.00000,80.71939
2398.00000,110.24723
2400.00000,96.77917
2402.00000,58.78994
2404.00000,93.14243
2406.00000,152.21426
2408.00000,84.09483
2410.00000,96.90276
2412.00000,128.77592
2414.00000,109.30154
2416.00000,114.06429
2418.00000,150.90593
2420.00000,150.54572
2422.00000,104.83717
2424.00000,79.51967
2426.00000,107.45039
2428.00000,89.47130
2430.00000,65.36109
2432.00000,104.02856
2434.00000,127.53354
2436.00000,75.31396
2438.00000,92.11712
2440.00000,153.62015
2442.00000,64.95657
2444.00000,76.98000
2446.00000,108.82091
2448.00000,64.06801
2450.00000,28.03446
2452.00000,71.69411
2454.00000,66.57198
2456.00000,50.24202
2458.00000,114.09332
2460.00000,133.28668
2462.00000,98.63370
2464.00000,68.47758
2466.00000,60.05427
2468.00000,46.59976
2470.00000,113.23066
2472.00000,137.12692
2474.00000,102.80401
2476.00000,144.09976
2478.00000,125.09231
2480.00000,87.13375
2482.00000,106.66305
2484.00000,142.65152
2486.00000,92.85487
2488.00000,173.37662
2490.00000,221.32536
2492.00000,101.23236
2494.00000,157.78571
2496.00000,115.17906
2498.00000,66.55913
2500.00000,138.94119
2502.00000,137.44908
2504.00000,87.91624
2506.00000,108.02168
2508.00000,156.00162
2510.00000,116.36680
2512.00000,131.49202
2514.00000,162.06906
2516.00000,148.59564
2518.00000,106.78985
2520.00000,75.67809
2522.00000,46.45205
2524.00000,86.72784
2526.00000,186.80273
2528.00000,177.19865
2530.00000,103.34709
2532.00000,85.59892
2534.00000,140.32404
2536.00000,158.45747
2538.00000,109.22165
2540.00000,150.86986
2542.00000,195.80338
2544.00000,79.51556
2546.00000,108.27719
2548.00000,150.44469
2550.00000,99.40967
2552.00000,51.69947
2554.00000,105.31942
2556.00000,102.02736
2558.00000,56.69017
2560.00000,64.67558
2562.00000,96.22854
2564.00000,93.14551
2566.00000,77.53490
2568.00000,69.62433
2570.00000,64.12476
2572.00000,104.99647
2574.00000,91.46828
2576.00000,52.75378
2578.00000,81.71777
2580.00000,64.30391
2582.00000,65.39410
2584.00000,98.92480
2586.00000,100.64505
2588.00000,59.84966
2590.00000,83.17157
2592.00000,102.28836
2594.00000,61.57242
2596.00000,65.72787
2598.00000,135.20969
2600.00000,160.95061
2602.00000,152.15802
2604.00000,205.19609
2606.00000,201.39339
2608.00000,155.43347
2610.00000,143.87778
2612.00000,175.17056
2614.00000,159.31160
2616.00000,135.35190
2618.00000,174.99559
2620.00000,227.79646
2622.00000,155.61072
2624.00000,127.29225
2626.00000,162.71463
2628.00000,148.84123
2630.00000,52.16581
2632.00000,53.27986
2634.00000,102.36578
2636.00000,106.41084
2638.00000,99.00299
2640.00000,168.70592
2642.00000,135.63147
2644.00000,39.01315
2646.00000,67.22326
2648.00000,162.78351
2650.00000,88.53598
2652.00000,37.70598
2654.00000,141.09052
2656.00000,115.28453
2658.00000,75.64127
2660.00000,104.39428
2662.00000,132.04456
2664.00000,82.04337
2666.00000,86.43452
2668.00000,89.42102
2670.00000,65.15766
2672.00000,75.46616
2674.00000,115.13136
2676.00000,137.22786
2678.00000,105.52061
2680.00000,59.50106
2682.00000,87.06142
2684.00000,90.67614
2686.00000,95.75134
2688.00000,143.95769
2690.00000,160.69637
2692.00000,99.97633
2694.00000,75.44607
2696.00000,105.39312
2698.00000,78.06175
2700.00000,27.20340
2702.00000,70.25467
2704.00000,106.67044
2706.00000,46.79469
2708.00000,125.89053
2710.00000,122.21966
2712.00000,67.83419
2714.00000,115.63354
2716.00000,161.39848
2718.00000,120.08303
2720.00000,131.23807
2722.00000,200.74590
2724.00000,163.71925
2726.00000,227.06430
2728.00000,259.13849
2730.00000,205.90155
2732.00000,207.58514
2734.00000,245.93562
2736.00000,309.36905
2738.00000,318.56046
2740.00000,255.40633
2742.00000,269.58679
2744.00000,271.83820
2746.00000,214.72757
2748.00000,150.67154
2750.00000,143.65643
2752.00000,171.71512
2754.00000,160.29698
2756.00000,116.99831
2758.00000,122.66629
2760.00000,144.49890
2762.00000,142.22989
2764.00000,99.87926
2766.00000,61.95340
2768.00000,114.04475
2770.00000,110.95305
2772.00000,57.53890
2774.00000,64.12878
2776.00000,104.23693
2778.00000,80.09483
2780.00000,94.01028
2782.00000,135.95093
2784.00000,35.17031
2786.00000,83.40611
2788.00000,164.67210
2790.00000,127.28561
2792.00000,89.79102
2794.00000,199.51378
2796.00000,197.89336
2798.00000,106.95282
2800.00000,132.19821
2802.00000,119.28873
2804.00000,70.07671
2806.00000,90.02740
2808.00000,165.93988
2810.00000,131.19217
2812.00000,95.14430
2814.00000,123.38931
2816.00000,133.49750
2818.00000,54.75790
2820.00000,106.54708
2822.00000,213.87943
2824.00000,233.68008
2826.00000,193.81099
2828.00000,237.11206
2830.00000,179.64661
2832.00000,201.10559
2834.00000,426.33719
2836.00000,396.70401
2838.00000,585.32526
2840.00000,736.56189
2842.00000,663.67322
2844.00000,899.33484
2846.00000,908.14807
2848.00000,891.81683
2850.00000,1048.45752
2852.00000,1082.21057
2854.00000,1037.92847
2856.00000,1108.76196
2858.00000,1144.82605
2860.00000,931.04474
2862.00000,795.30658
2864.00000,713.47052
2866.00000,576.29602
2868.00000,447.49319
2870.00000,485.21881
2872.00000,397.31769
2874.00000,279.03342
2876.00000,275.24228
2878.00000,234.00616
2880.00000,183.79781
2882.00000,196.33104
2884.00000,245.12135
2886.00000,246.86514
2888.00000,241.32982
2890.00000,255.30707
2892.00000,280.74203
2894.00000,341.39505
2896.00000,483.85391
2898.00000,434.43610
2900.00000,421.72998
2902.00000,602.56732
2904.00000,558.78510
2906.00000,578.65607
2908.00000,629.39978
2910.00000,604.52924
2912.00000,613.39117
2914.00000,617.65973
2916.00000,611.03766
2918.00000,645.67590
2920.00000,750.15680
2922.00000,834.30743
2924.00000,835.25061
2926.00000,851.21869
2928.00000,953.19562
2930.00000,1001.68195
2932.00000,1079.04456
2934.00000,1166.00024
2936.00000,1220.13599
2938.00000,1284.71460
2940.00000,1276.53442
2942.00000,1333.78772
2944.00000,1486.70886
2946.00000,1572.58704
2948.00000,1668.71692
2950.00000,1864.31384
2952.00000,2088.82202
2954.00000,2234.13965
2956.00000,2383.21216
2958.00000,2512.08765
2960.00000,2611.94116
2962.00000,2669.58496
2964.00000,2663.17529
2966.00000,2811.65576
2968.00000,2732.47656
2970.00000,2378.28979
2972.00000,2362.65796
2974.00000,2272.57764
2976.00000,2077.99829
2978.00000,1945.04456
2980.00000,1863.40845
2982.00000,1698.78516
2984.00000,1534.78955
2986.00000,1405.67981
2988.00000,1268.22119
2990.00000,1159.37170
2992.00000,1057.91675
2994.00000,1010.20538
2996.00000,1025.67371
2998.00000,956.84076
3000.00000,702.63226
3002.00000,622.79474
3004.00000,749.47839
3006.00000,638.20117
3008.00000,569.29675
3010.00000,685.68115
3012.00000,753.60675
3014.00000,579.38037
3016.00000,547.32129
3018.00000,562.11951
3020.00000,560.82941
3022.00000,558.46552
3024.00000,454.14581
3026.00000,519.11371
3028.00000,482.36981
3030.00000,225.72964
3032.00000,261.83975
3034.00000,349.47186
3036.00000,228.17668
3038.00000,170.32391
3040.00000,467.50235
3042.00000,276.57458
3044.00000,121.61391
3046.00000,231.79573
3048.00000,197.47025
3050.00000,182.94949
3052.00000,315.44574
3054.00000,364.86487
3056.00000,181.00668
3058.00000,83.39411
3060.00000,83.59312
3062.00000,151.86461
3064.00000,214.45061
3066.00000,181.85992
3068.00000,217.72931
3070.00000,327.49350
3072.00000,314.25046
3074.00000,129.52232
3076.00000,227.08073
3078.00000,304.84015
3080.00000,213.20023
3082.00000,190.91608
3084.00000,300.22708
3086.00000,173.27986
3088.00000,60.80637
3090.00000,264.93057
3092.00000,379.23575
3094.00000,237.21481
3096.00000,308.66898
3098.00000,512.02124
3100.00000,188.12143
3102.00000,86.66749
3104.00000,123.89401
3106.00000,75.34747
3108.00000,56.55207
3110.00000,85.73502
3112.00000,109.05957
3114.00000,74.39500
3116.00000,1.88277
3118.00000,-8.09247
3120.00000,76.44379
3122.00000,379.91388
3124.00000,555.22974
3126.00000,81.85399
3128.00000,305.79376
3130.00000,347.21933
3132.00000,40.67066
3134.00000,606.42865
3136.00000,541.48706
3138.00000,205.85143
3140.00000,275.90848
3142.00000,491.92816
3144.00000,271.02527
3146.00000,361.67093
3148.00000,703.57758
3150.00000,668.43579
3152.00000,401.11337
3154.00000,313.19644
3156.00000,355.03635
3158.00000,420.16397
3160.00000,568.11359
3162.00000,379.67960
3164.00000,322.50296
3166.00000,488.74969
3168.00000,351.99640
3170.00000,208.70456
3172.00000,316.03104
3174.00000,466.50620
3176.00000,432.72281
3178.00000,495.28207
3180.00000,305.20602
3182.00000,106.86888
3184.00000,299.45181
3186.00000,541.70276
3188.00000,351.10388
3190.00000,376.42154
3192.00000,704.78058
3194.00000,404.34262
3196.00000,91.07549
3198.00000,337.36090
3200.00000,713.48444
