300.00000,1180.74634
302.00000,1054.39929
304.00000,967.80017
306.00000,812.22681
308.00000,664.65088
310.00000,531.94342
312.00000,390.66306
314.00000,340.91641
316.00000,309.47260
318.00000,287.95016
320.00000,268.73099
322.00000,240.01205
324.00000,347.83383
326.00000,404.62723
328.00000,363.07443
330.00000,359.57233
332.00000,384.21976
334.00000,389.16293
336.00000,372.40042
338.00000,355.14694
340.00000,343.63156
342.00000,340.24112
344.00000,372.68988
346.00000,465.90814
348.00000,619.92474
350.00000,800.73322
352.00000,932.22888
354.00000,1048.73169
356.00000,1166.98987
358.00000,1210.41577
360.00000,1227.12549
362.00000,1134.72339
364.00000,951.42242
366.00000,804.72919
368.00000,687.82721
370.00000,615.81714
372.00000,547.48010
374.00000,457.08554
376.00000,398.66379
378.00000,367.03836
380.00000,345.28067
382.00000,319.37585
384.00000,286.04108
386.00000,260.63162
388.00000,246.33821
390.00000,212.66138
392.00000,155.28893
394.00000,128.97731
396.00000,126.68169
398.00000,130.12234
400.00000,145.34229
402.00000,165.52492
404.00000,119.55367
406.00000,86.78895
408.00000,94.62888
410.00000,97.48253
412.00000,93.32381
414.00000,127.01649
416.00000,169.81781
418.00000,185.68422
420.00000,184.36250
422.00000,169.67218
424.00000,164.70525
426.00000,194.19746
428.00000,212.35568
430.00000,125.97865
432.00000,111.87354
434.00000,180.71558
436.00000,205.60709
438.00000,145.79082
440.00000,140.98389
442.00000,159.67285
444.00000,142.16733
446.00000,110.40410
448.00000,125.89274
450.00000,182.27380
452.00000,242.83846
454.00000,295.40771
456.00000,364.51645
458.00000,451.78244
460.00000,499.59546
462.00000,505.16287
464.00000,525.32788
466.00000,558.63361
468.00000,510.30865
470.00000,450.23206
472.00000,444.70096
474.00000,406.84460
476.00000,377.34222
478.00000,317.91257
480.00000,242.12863
482.00000,226.25519
484.00000,246.86931
486.00000,276.73010
488.00000,304.44742
490.00000,295.06915
492.00000,222.69098
494.00000,236.66924
496.00000,251.73193
498.00000,210.44727
500.00000,192.49518
502.00000,173.34911
504.00000,185.71658
506.00000,199.24838
508.00000,177.28050
510.00000,166.48827
512.00000,141.06659
514.00000,121.33848
516.00000,127.10712
518.00000,142.12787
520.00000,164.12860
522.00000,174.39827
524.00000,204.78453
526.00000,274.21533
528.00000,314.31042
530.00000,332.86508
532.00000,343.39005
534.00000,341.61932
536.00000,326.85214
538.00000,323.70218
540.00000,290.72925
542.00000,241.91171
544.00000,219.82373
546.00000,189.93198
548.00000,156.53680
550.00000,156.73666
552.00000,174.67346
554.00000,163.04184
556.00000,196.63330
558.00000,133.03494
560.00000,120.50091
562.00000,316.62982
564.00000,303.01477
566.00000,302.88724
568.00000,369.82919
570.00000,418.24393
572.00000,477.53683
574.00000,451.69257
576.00000,452.85275
578.00000,492.79712
580.00000,471.19919
582.00000,469.44644
584.00000,442.01517
586.00000,400.13818
588.00000,389.89334
590.00000,401.19363
592.00000,431.53616
594.00000,432.64319
596.00000,403.96115
598.00000,390.34149
600.00000,370.15802
602.00000,341.88062
604.00000,323.74921
606.00000,317.54666
608.00000,299.90854
610.00000,289.86874
612.00000,299.42917
614.00000,305.29337
616.00000,280.11688
618.00000,255.76109
620.00000,253.84128
622.00000,273.00931
624.00000,286.26193
626.00000,261.31992
628.00000,228.81108
630.00000,214.45195
632.00000,216.47928
634.00000,214.61227
636.00000,194.51596
638.00000,175.32092
640.00000,159.81651
642.00000,146.04759
644.00000,156.25563
646.00000,163.50763
648.00000,147.74878
650.00000,130.29700
652.00000,135.45923
654.00000,113.88126
656.00000,137.91570
658.00000,192.70847
660.00000,235.97543
662.00000,365.75711
664.00000,432.94980
666.00000,436.46719
668.00000,466.40341
670.00000,501.02924
672.00000,433.99612
674.00000,366.34064
676.00000,353.42310
678.00000,340.26587
680.00000,331.16553
682.00000,308.86948
684.00000,281.51016
686.00000,254.05573
688.00000,211.47148
690.00000,195.10094
692.00000,215.19690
694.00000,238.73730
696.00000,227.26128
698.00000,188.16792
700.00000,165.59271
702.00000,160.68687
704.00000,150.52847
706.00000,137.26259
708.00000,129.36484
710.00000,123.04973
712.00000,102.75795
714.00000,79.67971
716.00000,112.96185
718.00000,121.98729
720.00000,147.04982
722.00000,238.25603
724.00000,296.34814
726.00000,414.78372
728.00000,597.81848
730.00000,796.42841
732.00000,995.53143
734.00000,1198.64978
736.00000,1422.24634
738.00000,1670.16113
740.00000,1907.39172
742.00000,2081.74487
744.00000,2240.41895
746.00000,2382.56128
748.00000,2497.61328
750.00000,2580.10815
752.00000,2547.93652
754.00000,2454.60229
756.00000,2309.85815
758.00000,2093.42578
760.00000,1881.82373
762.00000,1668.74329
764.00000,1409.74658
766.00000,1139.52502
768.00000,950.73407
770.00000,786.39081
772.00000,651.11115
774.00000,555.83539
776.00000,483.32056
778.00000,425.31366
780.00000,387.51950
782.00000,375.49319
784.00000,372.27454
786.00000,343.58429
788.00000,291.52112
790.00000,251.82222
792.00000,238.96649
794.00000,232.13748
796.00000,213.23106
798.00000,198.24942
800.00000,204.60176
802.00000,195.14714
804.00000,121.03422
806.00000,107.40735
808.00000,112.12612
810.00000,120.85890
812.00000,168.67696
814.00000,146.49414
816.00000,219.15074
818.00000,322.93161
820.00000,396.75964
822.00000,661.74353
824.00000,946.85681
826.00000,1216.94946
828.00000,1484.36731
830.00000,1667.00928
832.00000,1677.34766
834.00000,1513.24402
836.00000,1277.94995
838.00000,1084.20142
840.00000,948.48029
842.00000,840.19281
844.00000,742.79095
846.00000,641.84393
848.00000,543.46442
850.00000,518.01495
852.00000,497.64850
854.00000,467.76895
856.00000,472.20105
858.00000,501.64780
860.00000,590.74567
862.00000,657.65283
864.00000,692.95264
866.00000,783.75049
868.00000,785.70776
870.00000,756.13086
872.00000,697.68036
874.00000,565.46960
876.00000,463.66986
878.00000,352.74380
880.00000,247.35793
882.00000,198.09142
884.00000,197.95453
886.00000,192.87206
888.00000,178.30156
890.00000,178.26221
892.00000,201.38545
894.00000,229.04631
896.00000,277.52466
898.00000,289.84290
900.00000,263.69806
902.00000,291.70978
904.00000,272.00479
906.00000,248.32800
908.00000,238.49393
910.00000,198.25528
912.00000,187.51161
914.00000,165.46236
916.00000,139.30554
918.00000,143.34334
920.00000,159.74675
922.00000,178.98010
924.00000,179.76207
926.00000,157.62230
928.00000,130.76727
930.00000,110.19599
932.00000,112.89413
934.00000,111.69419
936.00000,106.03708
938.00000,142.75174
940.00000,94.11681
942.00000,65.47324
944.00000,104.13329
946.00000,86.13405
948.00000,68.58875
950.00000,121.54305
952.00000,159.52077
954.00000,115.62623
956.00000,116.95471
958.00000,105.51660
960.00000,161.31418
962.00000,222.00601
964.00000,116.61664
966.00000,142.60959
968.00000,140.56012
970.00000,80.67959
972.00000,101.43649
974.00000,110.19385
976.00000,119.42023
978.00000,117.21979
980.00000,108.04633
982.00000,132.94763
984.00000,140.10806
986.00000,116.18226
988.00000,90.74786
990.00000,94.75607
992.00000,119.33567
994.00000,119.91468
996.00000,108.41759
998.00000,107.71329
1000.00000,100.93817
1002.00000,88.77438
1004.00000,73.05068
1006.00000,71.83985
1008.00000,86.03589
1010.00000,66.39777
1012.00000,69.90063
1014.00000,99.87542
1016.00000,121.87103
1018.00000,148.75958
1020.00000,210.48111
1022.00000,233.09305
1024.00000,240.85608
1026.00000,318.40179
1028.00000,355.81403
1030.00000,384.49887
1032.00000,386.06937
1034.00000,362.74466
1036.00000,401.96292
1038.00000,355.19458
1040.00000,314.26834
1042.00000,304.45877
1044.00000,221.57291
1046.00000,213.39603
1048.00000,205.13475
1050.00000,158.45996
1052.00000,125.15902
1054.00000,118.60682
1056.00000,114.10065
1058.00000,115.65955
1060.00000,105.55672
1062.00000,60.30036
1064.00000,58.36168
1066.00000,90.57155
1068.00000,95.77802
1070.00000,63.73582
1072.00000,68.97221
1074.00000,91.68596
1076.00000,71.10221
1078.00000,57.48260
1080.00000,132.56522
1082.00000,97.66210
1084.00000,57.70135
1086.00000,88.45341
1088.00000,112.66203
1090.00000,91.61926
1092.00000,77.98064
1094.00000,47.24543
1096.00000,11.74645
1098.00000,50.05215
1100.00000,50.10549
1102.00000,39.51830
1104.00000,65.16618
1106.00000,90.05563
1108.00000,64.78175
1110.00000,110.34705
1112.00000,169.18640
1114.00000,155.12210
1116.00000,148.79796
1118.00000,167.34763
1120.00000,196.82097
1122.00000,195.09137
1124.00000,178.80865
1126.00000,268.06906
1128.00000,251.50826
1130.00000,209.21823
1132.00000,247.20593
1134.00000,172.99765
1136.00000,150.89549
1138.00000,162.17914
1140.00000,137.24002
1142.00000,103.21429
1144.00000,85.11102
1146.00000,69.06017
1148.00000,64.15643
1150.00000,74.66638
1152.00000,72.36897
1154.00000,99.79109
1156.00000,147.10234
1158.00000,164.68120
1160.00000,146.99419
1162.00000,173.57664
1164.00000,165.79262
1166.00000,130.34126
1168.00000,137.79257
1170.00000,149.77176
1172.00000,117.67585
1174.00000,96.14716
1176.00000,97.67287
1178.00000,73.04623
1180.00000,106.90210
1182.00000,77.33566
1184.00000,57.32713
1186.00000,141.13271
1188.00000,101.50285
1190.00000,123.37101
1192.00000,142.59721
1194.00000,87.57572
1196.00000,113.72993
1198.00000,185.64330
1200.00000,236.51308
1202.00000,259.78448
1204.00000,291.49237
1206.00000,347.89709
1208.00000,446.78436
1210.00000,567.25507
1212.00000,700.48297
1214.00000,891.18231
1216.00000,1174.62671
1218.00000,1511.13904
1220.00000,1872.28015
1222.00000,2220.34277
1224.00000,2434.97510
1226.00000,2535.59619
1228.00000,2497.03833
1230.00000,2319.58398
1232.00000,2098.03003
1234.00000,1809.69763
1236.00000,1511.63586
1238.00000,1233.04126
1240.00000,959.36353
1242.00000,757.85773
1244.00000,639.42957
1246.00000,557.95081
1248.00000,482.48169
1250.00000,427.29996
1252.00000,351.76947
1254.00000,287.78229
1256.00000,255.14447
1258.00000,219.39319
1260.00000,172.73610
1262.00000,124.19641
1264.00000,128.10008
1266.00000,168.22148
1268.00000,137.38991
1270.00000,204.28537
1272.00000,267.01324
1274.00000,283.70267
1276.00000,389.35352
1278.00000,440.13226
1280.00000,498.32639
1282.00000,533.75122
1284.00000,505.57062
1286.00000,555.71454
1288.00000,493.88742
1290.00000,371.63989
1292.00000,320.91339
1294.00000,309.87759
1296.00000,282.11353
1298.00000,210.82341
1300.00000,148.45590
1302.00000,139.61504
1304.00000,127.72818
1306.00000,158.44160
1308.00000,168.18889
1310.00000,162.37106
1312.00000,248.56119
1314.00000,245.00375
1316.00000,241.62189
1318.00000,242.76219
1320.00000,180.59686
1322.00000,223.36145
1324.00000,225.03587
1326.00000,156.58383
1328.00000,95.06881
1330.00000,56.14071
1332.00000,62.18396
1334.00000,86.21503
1336.00000,82.50723
1338.00000,54.50357
1340.00000,74.51476
1342.00000,96.83445
1344.00000,96.06266
1346.00000,101.21093
1348.00000,139.29398
1350.00000,184.65916
1352.00000,221.54482
1354.00000,245.61758
1356.00000,267.74887
1358.00000,308.99997
1360.00000,273.47702
1362.00000,247.91101
1364.00000,292.07559
1366.00000,238.09732
1368.00000,240.39635
1370.00000,241.43980
1372.00000,197.83025
1374.00000,194.28854
1376.00000,155.62541
1378.00000,115.87355
1380.00000,99.14533
1382.00000,111.66901
1384.00000,172.06081
1386.00000,152.05260
1388.00000,143.29413
1390.00000,191.05975
1392.00000,176.02849
1394.00000,169.44568
1396.00000,189.06746
1398.00000,178.41222
1400.00000,124.70518
1402.00000,124.33389
1404.00000,138.25624
1406.00000,131.01518
1408.00000,95.68772
1410.00000,45.10238
1412.00000,34.82405
1414.00000,57.34938
1416.00000,83.18335
1418.00000,86.34309
1420.00000,52.69640
1422.00000,52.98577
1424.00000,57.01587
1426.00000,49.65556
1428.00000,89.36398
1430.00000,73.38435
1432.00000,83.14841
1434.00000,148.43898
1436.00000,169.05998
1438.00000,141.11896
1440.00000,290.31131
1442.00000,412.52094
1444.00000,384.98459
1446.00000,521.15900
1448.00000,544.05304
1450.00000,567.76257
1452.00000,631.77954
1454.00000,591.23181
1456.00000,616.80316
1458.00000,609.46368
1460.00000,562.11206
1462.00000,554.14508
1464.00000,558.95032
1466.00000,535.35095
1468.00000,559.86005
1470.00000,628.23798
1472.00000,640.90393
1474.00000,647.35193
1476.00000,670.68549
1478.00000,634.79956
1480.00000,506.79495
1482.00000,402.11041
1484.00000,322.99341
1486.00000,275.55225
1488.00000,240.34102
1490.00000,182.93831
1492.00000,157.65022
1494.00000,157.28470
1496.00000,142.07594
1498.00000,109.62296
1500.00000,109.75537
1502.00000,119.58666
1504.00000,113.59415
1506.00000,111.08181
1508.00000,138.92760
1510.00000,141.01656
1512.00000,142.05040
1514.00000,154.36842
1516.00000,138.79410
1518.00000,77.12980
1520.00000,66.72793
1522.00000,73.41796
1524.00000,57.15887
1526.00000,61.42007
1528.00000,21.58810
1530.00000,92.22093
1532.00000,152.94574
1534.00000,41.37992
1536.00000,113.16705
1538.00000,126.08282
1540.00000,69.20789
1542.00000,78.37920
1544.00000,92.99642
1546.00000,97.15865
1548.00000,68.56979
1550.00000,63.59961
1552.00000,120.28327
1554.00000,94.69517
1556.00000,79.27442
1558.00000,90.93035
1560.00000,90.38430
1562.00000,102.50730
1564.00000,74.64420
1566.00000,70.15833
1568.00000,114.23876
1570.00000,149.31915
1572.00000,178.49684
1574.00000,142.77388
1576.00000,125.70656
1578.00000,168.78723
1580.00000,116.82174
1582.00000,85.53671
1584.00000,79.63152
1586.00000,82.22926
1588.00000,111.59845
1590.00000,85.06875
1592.00000,74.85222
1594.00000,100.05325
1596.00000,112.69641
1598.00000,113.93431
1600.00000,105.19067
1602.00000,125.05376
1604.00000,175.02654
1606.00000,194.16078
1608.00000,162.74539
1610.00000,155.37605
1612.00000,175.98784
1614.00000,173.51918
1616.00000,158.49597
1618.00000,125.14042
1620.00000,143.47412
1622.00000,209.59875
1624.00000,211.41896
1626.00000,184.13254
1628.00000,151.51852
1630.00000,153.37985
1632.00000,194.47693
1634.00000,185.07661
1636.00000,181.52986
1638.00000,195.52638
1640.00000,199.40617
1642.00000,194.95784
1644.00000,187.10080
1646.00000,177.54649
1648.00000,151.25818
1650.00000,103.61389
1652.00000,77.42908
1654.00000,86.75829
1656.00000,93.39745
1658.00000,76.14011
1660.00000,66.08305
1662.00000,54.70696
1664.00000,92.73707
1666.00000,132.05200
1668.00000,89.32580
1670.00000,80.17378
1672.00000,70.14957
1674.00000,78.56695
1676.00000,123.12100
1678.00000,118.81168
1680.00000,92.66529
1682.00000,68.08147
1684.00000,42.60956
1686.00000,33.21333
1688.00000,90.40824
1690.00000,72.14005
1692.00000,51.20998
1694.00000,124.14033
1696.00000,117.94969
1698.00000,100.51519
1700.00000,45.26227
1702.00000,51.57878
1704.00000,211.35207
1706.00000,95.97631
1708.00000,109.38018
1710.00000,203.73602
1712.00000,89.84231
1714.00000,116.59122
1716.00000,98.66101
1718.00000,78.70836
1720.00000,102.53733
1722.00000,49.36315
1724.00000,85.32523
1726.00000,139.53140
1728.00000,187.85661
1730.00000,235.54582
1732.00000,158.12610
1734.00000,210.30634
1736.00000,205.35046
1738.00000,97.60910
1740.00000,225.45599
1742.00000,207.74866
1744.00000,175.06943
1746.00000,271.02307
1748.00000,323.24142
1750.00000,164.78363
1752.00000,104.92888
1754.00000,165.24152
1756.00000,186.74803
1758.00000,179.19313
1760.00000,181.45026
1762.00000,225.65530
1764.00000,306.53738
1766.00000,342.42728
1768.00000,230.66026
1770.00000,208.34065
1772.00000,247.57602
1774.00000,205.49457
1776.00000,176.40427
1778.00000,224.96515
1780.00000,153.65021
1782.00000,60.16545
1784.00000,183.47949
1786.00000,141.46327
1788.00000,57.55801
1790.00000,71.87892
1792.00000,126.98429
1794.00000,136.32043
1796.00000,179.21910
1798.00000,207.68637
1800.00000,167.60477
1802.00000,122.68462
1804.00000,151.95576
1806.00000,128.36781
1808.00000,59.55952
1810.00000,57.18194
1812.00000,102.20300
1814.00000,130.26257
1816.00000,99.98776
1818.00000,41.99374
1820.00000,38.53080
1822.00000,114.60685
1824.00000,166.68025
1826.00000,155.80116
1828.00000,161.67267
1830.00000,246.44832
1832.00000,252.72694
1834.00000,185.98746
1836.00000,150.61555
1838.00000,152.95007
1840.00000,106.07638
1842.00000,204.51784
1844.00000,314.06497
1846.00000,216.23511
1848.00000,230.63004
1850.00000,192.82619
1852.00000,205.91435
1854.00000,293.47226
1856.00000,211.52492
1858.00000,316.20999
1860.00000,383.54724
1862.00000,333.10516
1864.00000,351.95413
1866.00000,297.97202
1868.00000,307.77475
1870.00000,272.75766
1872.00000,210.47990
1874.00000,380.72308
1876.00000,233.53716
1878.00000,295.71448
1880.00000,491.22314
1882.00000,218.47527
1884.00000,272.72171
1886.00000,245.48779
1888.00000,184.73643
1890.00000,301.67514
1892.00000,197.26544
1894.00000,158.75771
1896.00000,166.86977
1898.00000,116.71954
1900.00000,68.40314
1902.00000,41.39008
1904.00000,38.01683
1906.00000,61.18903
1908.00000,90.13771
1910.00000,71.04689
1912.00000,8.51395
1914.00000,50.61717
1916.00000,123.48684
1918.00000,51.26610
1920.00000,157.91365
1922.00000,116.80531
1924.00000,44.71347
1926.00000,201.19130
1928.00000,162.90787
1930.00000,68.32613
1932.00000,62.91741
1934.00000,109.06894
1936.00000,147.05042
1938.00000,288.28812
1940.00000,249.34793
1942.00000,176.70235
1944.00000,295.40442
1946.00000,179.60701
1948.00000,268.64029
1950.00000,338.55219
1952.00000,250.79164
1954.00000,417.17099
1956.00000,349.03009
1958.00000,241.36908
1960.00000,260.93985
1962.00000,281.56323
1964.00000,342.75488
1966.00000,365.20981
1968.00000,389.66907
1970.00000,469.29565
1972.00000,507.91730
1974.00000,410.84647
1976.00000,364.86102
1978.00000,400.45410
1980.00000,376.04388
1982.00000,375.54739
1984.00000,349.97394
1986.00000,285.67447
1988.00000,234.05991
1990.00000,222.57010
1992.00000,206.22055
1994.00000,243.54906
1996.00000,255.48936
1998.00000,136.35130
2000.00000,234.29480
2002.00000,187.33063
2004.00000,72.24997
2006.00000,110.82234
2008.00000,133.54507
2010.00000,105.58079
2012.00000,77.81034
2014.00000,71.92625
2016.00000,58.30588
2018.00000,75.93076
2020.00000,114.19337
2022.00000,134.31239
2024.00000,143.71535
2026.00000,158.50389
2028.00000,152.36455
2030.00000,119.63333
2032.00000,100.12102
2034.00000,89.26778
2036.00000,93.34154
2038.00000,104.80769
2040.00000,102.80523
2042.00000,91.97810
2044.00000,71.16562
2046.00000,71.20838
2048.00000,103.04591
2050.00000,99.26655
2052.00000,69.90553
2054.00000,71.76637
2056.00000,97.45204
2058.00000,74.64484
2060.00000,102.97067
2062.00000,118.98533
2064.00000,80.08679
2066.00000,70.86827
2068.00000,74.21668
2070.00000,62.07237
2072.00000,59.25308
2074.00000,95.75935
2076.00000,113.17098
2078.00000,88.67026
2080.00000,73.96030
2082.00000,95.98554
2084.00000,88.22880
2086.00000,100.75089
2088.00000,82.55001
2090.00000,54.57371
2092.00000,141.96559
2094.00000,117.79435
2096.00000,59.31999
2098.00000,80.59924
2100.00000,118.73884
2102.00000,127.56423
2104.00000,96.02223
2106.00000,71.95351
2108.00000,90.28599
2110.00000,90.63102
2112.00000,94.80556
2114.00000,96.44843
2116.00000,79.40137
2118.00000,71.41415
2120.00000,61.17159
2122.00000,68.79169
2124.00000,90.32125
2126.00000,94.61472
2128.00000,141.38000
2130.00000,128.05757
2132.00000,61.40841
2134.00000,67.17815
2136.00000,71.14031
2138.00000,56.88163
2140.00000,70.65115
2142.00000,119.02281
2144.00000,113.86767
2146.00000,87.57179
2148.00000,65.99172
2150.00000,73.00602
2152.00000,129.08447
2154.00000,103.86011
2156.00000,54.50047
2158.00000,69.64545
2160.00000,109.39188
2162.00000,101.67567
2164.00000,53.47174
2166.00000,46.17312
2168.00000,101.02892
2170.00000,74.59956
2172.00000,75.61055
2174.00000,109.20518
2176.00000,98.00097
2178.00000,92.70908
2180.00000,106.21380
2182.00000,95.04695
2184.00000,63.15076
2186.00000,80.10352
2188.00000,91.27606
2190.00000,84.67249
2192.00000,88.27966
2194.00000,112.45845
2196.00000,119.99139
2198.00000,124.01591
2200.00000,117.58835
2202.00000,93.13289
2204.00000,99.93665
2206.00000,74.17852
2208.00000,67.16708
2210.00000,111.17842
2212.00000,83.68570
2214.00000,96.08506
2216.00000,137.98399
2218.00000,130.78026
2220.00000,91.05543
2222.00000,126.33957
2224.00000,145.11096
2226.00000,94.38255
2228.00000,63.01662
2230.00000,91.90197
2232.00000,79.29491
2234.00000,71.24078
2236.00000,129.07901
2238.00000,86.37688
2240.00000,74.07132
2242.00000,108.76307
2244.00000,102.38855
2246.00000,57.16650
2248.00000,55.89584
2250.00000,68.61481
2252.00000,60.50075
2254.00000,62.68717
2256.00000,60.42125
2258.00000,49.85675
2260.00000,58.48355
2262.00000,87.39052
2264.00000,60.29452
2266.00000,56.21961
2268.00000,71.90981
2270.00000,58.24578
2272.00000,62.30405
2274.00000,46.15884
2276.00000,51.75838
2278.00000,95.24459
2280.00000,100.53045
2282.00000,118.01381
2284.00000,117.90010
2286.00000,85.60078
2288.00000,68.72056
2290.00000,64.34191
2292.00000,73.94647
2294.00000,100.64828
2296.00000,116.99925
2298.00000,69.09908
2300.00000,42.00074
2302.00000,71.88651
2304.00000,110.84389
2306.00000,108.16463
2308.00000,84.25100
2310.00000,68.07074
2312.00000,71.36167
2314.00000,75.01467
2316.00000,32.75671
2318.00000,50.79835
2320.00000,108.13878
2322.00000,84.72507
2324.00000,106.35324
2326.00000,100.67814
2328.00000,99.65955
2330.00000,163.39348
2332.00000,135.24857
2334.00000,84.01989
2336.00000,85.15464
2338.00000,112.61275
2340.00000,96.41897
2342.00000,91.31142
2344.00000,67.13726
2346.00000,50.97623
2348.00000,124.05547
2350.00000,125.20411
2352.00000,68.57332
2354.00000,54.43479
2356.00000,104.33155
2358.00000,114.24429
2360.00000,95.21758
2362.00000,84.55391
2364.00000,85.15221
2366.00000,80.02294
2368.00000,96.59058
2370.00000,110.96464
2372.00000,96.21494
2374.00000,81.72540
2376.00000,92.85344
2378.00000,82.85123
2380.00000,66.82658
2382.00000,97.81031
2384.00000,66.26299
2386.00000,61.94384
2388.00000,110.12448
2390.00000,116.38651
2392.00000,68.06242
2394.00000,69.15662
2396.00000,100.85326
2398.00000,93.34037
2400.00000,80.49529
2402.00000,70.82089
2404.00000,77.12993
2406.00000,93.06025
2408.00000,91.66602
2410.00000,89.68826
2412.00000,79.16618
2414.00000,62.72564
2416.00000,60.99029
2418.00000,67.70501
2420.00000,69.92756
2422.00000,52.95123
2424.00000,35.73554
2426.00000,68.12719
2428.00000,53.78986
2430.00000,58.84430
2432.00000,127.89909
2434.00000,111.91336
2436.00000,79.91885
2438.00000,83.16846
2440.00000,97.19010
2442.00000,81.12064
2444.00000,69.00841
2446.00000,100.67957
2448.00000,144.45346
2450.00000,134.12108
2452.00000,87.91063
2454.00000,77.95972
2456.00000,97.06483
2458.00000,101.21107
2460.00000,112.05425
2462.00000,132.19371
2464.00000,138.40495
2466.00000,113.11504
2468.00000,75.51155
2470.00000,75.57745
2472.00000,100.99104
2474.00000,95.75874
2476.00000,58.60743
2478.00000,115.67010
2480.00000,151.49414
2482.00000,147.43773
2484.00000,170.18700
2486.00000,115.51436
2488.00000,112.76538
2490.00000,133.95793
2492.00000,96.79922
2494.00000,93.26937
2496.00000,80.05922
2498.00000,63.70151
2500.00000,83.84054
2502.00000,121.61970
2504.00000,88.55490
2506.00000,82.26971
2508.00000,127.90331
2510.00000,121.88811
2512.00000,93.09560
2514.00000,95.65298
2516.00000,101.32745
2518.00000,66.26782
2520.00000,56.73371
2522.00000,127.88078
2524.00000,153.62564
2526.00000,65.63941
2528.00000,35.68311
2530.00000,89.87326
2532.00000,98.53257
2534.00000,41.09852
2536.00000,57.67472
2538.00000,117.28283
2540.00000,97.37045
2542.00000,61.95865
2544.00000,121.08430
2546.00000,76.09818
2548.00000,67.16611
2550.00000,97.12111
2552.00000,65.39545
2554.00000,59.14949
2556.00000,67.79446
2558.00000,86.29117
2560.00000,121.24129
2562.00000,142.56699
2564.00000,87.99524
2566.00000,105.00070
2568.00000,170.33305
2570.00000,97.84705
2572.00000,94.15326
2574.00000,120.63419
2576.00000,98.28867
2578.00000,76.88616
2580.00000,150.16101
2582.00000,179.46349
2584.00000,102.68468
2586.00000,54.36047
2588.00000,169.81465
2590.00000,119.65047
2592.00000,65.83468
2594.00000,159.81737
2596.00000,153.30600
2598.00000,135.83961
2600.00000,199.71150
2602.00000,237.58888
2604.00000,127.34891
2606.00000,95.71433
2608.00000,105.17933
2610.00000,115.82663
2612.00000,141.20691
2614.00000,126.55941
2616.00000,154.40489
2618.00000,205.63576
2620.00000,203.47205
2622.00000,163.16724
2624.00000,165.36549
2626.00000,142.17398
2628.00000,86.82772
2630.00000,114.26987
2632.00000,148.14929
2634.00000,129.92630
2636.00000,127.14658
2638.00000,184.25168
2640.00000,127.14119
2642.00000,106.69090
2644.00000,136.27452
2646.00000,112.24863
2648.00000,96.39106
2650.00000,105.75929
2652.00000,146.11990
2654.00000,186.22775
2656.00000,168.90210
2658.00000,142.04640
2660.00000,111.54067
2662.00000,80.12434
2664.00000,74.14825
2666.00000,81.54197
2668.00000,60.13722
2670.00000,59.51596
2672.00000,112.97626
2674.00000,75.80461
2676.00000,64.16271
2678.00000,87.58465
2680.00000,76.71935
2682.00000,76.62361
2684.00000,100.10414
2686.00000,117.30679
2688.00000,124.89080
2690.00000,148.08809
2692.00000,124.45959
2694.00000,86.70187
2696.00000,60.90284
2698.00000,48.70642
2700.00000,116.54909
2702.00000,110.61612
2704.00000,53.54871
2706.00000,95.60040
2708.00000,159.08203
2710.00000,76.72675
2712.00000,54.60833
2714.00000,161.37494
2716.00000,40.01077
2718.00000,63.04175
2720.00000,135.04053
2722.00000,130.03830
2724.00000,227.64442
2726.00000,283.48959
2728.00000,229.58751
2730.00000,203.63887
2732.00000,299.58240
2734.00000,264.77069
2736.00000,241.93590
2738.00000,290.01984
2740.00000,317.23550
2742.00000,317.24857
2744.00000,285.05777
2746.00000,263.04123
2748.00000,212.16191
2750.00000,56.52353
2752.00000,91.13253
2754.00000,141.71622
2756.00000,106.43635
2758.00000,165.53197
2760.00000,151.45959
2762.00000,50.34717
2764.00000,17.39417
2766.00000,106.70264
2768.00000,77.95493
2770.00000,38.73608
2772.00000,72.18782
2774.00000,109.25299
2776.00000,78.03931
2778.00000,112.77506
2780.00000,143.98575
2782.00000,93.56975
2784.00000,68.95666
2786.00000,112.92690
2788.00000,115.30843
2790.00000,110.36974
2792.00000,223.07486
2794.00000,268.04428
2796.00000,229.53021
2798.00000,200.12587
2800.00000,192.12343
2802.00000,98.90936
2804.00000,137.95465
2806.00000,178.19049
2808.00000,112.34930
2810.00000,211.50099
2812.00000,208.83202
2814.00000,112.48170
2816.00000,107.03156
2818.00000,202.29451
2820.00000,175.08260
2822.00000,199.97380
2824.00000,311.20187
2826.00000,311.98834
2828.00000,292.45074
2830.00000,482.94659
2832.00000,562.60004
2834.00000,357.17102
2836.00000,556.07910
2838.00000,744.91095
2840.00000,777.52618
2842.00000,862.95013
2844.00000,1040.63647
2846.00000,1051.17542
2848.00000,1044.41626
2850.00000,1138.81323
2852.00000,1176.63269
2854.00000,1153.95374
2856.00000,1161.33167
2858.00000,1164.51294
2860.00000,1056.27454
2862.00000,896.70001
2864.00000,823.72382
2866.00000,694.92084
2868.00000,465.92206
2870.00000,464.72482
2872.00000,371.76447
2874.00000,257.11594
2876.00000,292.30936
2878.00000,292.49915
2880.00000,82.06599
2882.00000,94.02175
2884.00000,289.19528
2886.00000,195.07680
2888.00000,237.52731
2890.00000,334.70956
2892.00000,401.40225
2894.00000,488.17181
2896.00000,501.76205
2898.00000,461.99115
2900.00000,452.62378
2902.00000,532.50922
2904.00000,668.06085
2906.00000,737.51526
2908.00000,738.32428
2910.00000,738.69482
2912.00000,751.24042
2914.00000,696.29608
2916.00000,744.61487
2918.00000,856.79590
2920.00000,861.19104
2922.00000,975.22247
2924.00000,1014.81360
2926.00000,971.64484
2928.00000,1033.28210
2930.00000,1186.37366
2932.00000,1236.90369
2934.00000,1296.82947
2936.00000,1456.32483
2938.00000,1529.55420
2940.00000,1622.02844
2942.00000,1661.20471
2944.00000,1655.49304
2946.00000,1755.55737
2948.00000,1858.37817
2950.00000,2040.47559
2952.00000,2254.58960
2954.00000,2348.15137
2956.00000,2395.32593
2958.00000,2517.82690
2960.00000,2573.35742
2962.00000,2500.48950
2964.00000,2595.79126
2966.00000,2667.15918
2968.00000,2577.05249
2970.00000,2437.01636
2972.00000,2364.45581
2974.00000,2036.86780
2976.00000,1834.43201
2978.00000,1813.52820
2980.00000,1563.33752
2982.00000,1403.15552
2984.00000,1400.61841
2986.00000,1293.78931
2988.00000,973.16168
2990.00000,841.77338
2992.00000,824.92499
2994.00000,768.95313
2996.00000,702.84833
2998.00000,765.43713
3000.00000,818.55811
3002.00000,800.37213
3004.00000,787.99219
3006.00000,832.15137
3008.00000,760.83679
3010.00000,776.80096
3012.00000,871.32831
3014.00000,837.03271
3016.00000,877.65106
3018.00000,831.76300
3020.00000,781.33905
3022.00000,834.23132
3024.00000,702.26147
3026.00000,715.98669
3028.00000,794.01642
3030.00000,726.34766
3032.00000,649.68646
3034.00000,555.56281
3036.00000,562.81488
3038.00000,599.61395
3040.00000,492.81763
3042.00000,581.19696
3044.00000,619.23645
3046.00000,494.45654
3048.00000,440.98511
3050.00000,510.63629
3052.00000,418.62958
3054.00000,365.80118
3056.00000,581.79224
3058.00000,655.89630
3060.00000,504.61526
3062.00000,373.67905
3064.00000,414.08328
3066.00000,432.27948
3068.00000,240.52464
3070.00000,317.89041
3072.00000,431.02521
3074.00000,21.84836
3076.00000,218.40999
3078.00000,267.22321
3080.00000,51.37037
3082.00000,158.54082
3084.00000,126.06370
3086.00000,160.08221
3088.00000,244.02614
3090.00000,163.22569
3092.00000,5.44532
3094.00000,100.76342
3096.00000,111.32496
3098.00000,13.20123
3100.00000,254.43254
3102.00000,130.39894
3104.00000,-43.37986
3106.00000,12.71768
3108.00000,62.23485
3110.00000,126.10159
3112.00000,299.92389
3114.00000,446.23267
3116.00000,428.06192
3118.00000,390.86819
3120.00000,148.65672
3122.00000,70.59398
3124.00000,397.98846
3126.00000,621.76385
3128.00000,556.60718
3130.00000,536.21832
3132.00000,508.42374
3134.00000,185.80756
3136.00000,386.59189
3138.00000,561.53912
3140.00000,511.04922
3142.00000,633.94824
3144.00000,594.23993
3146.00000,337.85513
3148.00000,255.76573
3150.00000,488.97006
3152.00000,513.51093
3154.00000,487.81506
3156.00000,643.03210
3158.00000,679.51898
3160.00000,191.78734
3162.00000,211.28909
3164.00000,476.88629
3166.00000,407.71170
3168.00000,195.87325
3170.00000,438.92798
3172.00000,423.36151
3174.00000,90.01572
3176.00000,3.57041
3178.00000,-39.15675
3180.00000,173.11319
3182.00000,317.39111
3184.00000,181.20177
3186.00000,250.27373
3188.00000,119.80419
3190.00000,7.29975
3192.00000,111.00726
3194.00000,126.96149
3196.00000,152.04509
3198.00000,83.25379
3200.00000,40.96579
