300.00000,1167.77783
302.00000,1058.86340
304.00000,915.04803
306.00000,745.18823
308.00000,596.62543
310.00000,475.04648
312.00000,375.75137
314.00000,329.60925
316.00000,268.89429
318.00000,219.45540
320.00000,213.35580
322.00000,225.61584
324.00000,282.61780
326.00000,332.08151
328.00000,358.79800
330.00000,375.75986
332.00000,347.51807
334.00000,323.87637
336.00000,321.47061
338.00000,326.18585
340.00000,325.63998
342.00000,300.70743
344.00000,316.91879
346.00000,419.61578
348.00000,585.12939
350.00000,762.28101
352.00000,902.81885
354.00000,961.44812
356.00000,986.78442
358.00000,1064.85901
360.00000,1024.36072
362.00000,923.99915
364.00000,829.15948
366.00000,716.82678
368.00000,626.68848
370.00000,508.29089
372.00000,386.24994
374.00000,330.01968
376.00000,343.10910
378.00000,368.95737
380.00000,363.13385
382.00000,312.73386
384.00000,252.40247
386.00000,251.59299
388.00000,244.68849
390.00000,224.63010
392.00000,213.27162
394.00000,173.36839
396.00000,149.65889
398.00000,143.08368
400.00000,130.83539
402.00000,116.10291
404.00000,124.00373
406.00000,119.82381
408.00000,150.24596
410.00000,181.71713
412.00000,46.82907
414.00000,82.91712
416.00000,140.02977
418.00000,103.48753
420.00000,184.75142
422.00000,239.10355
424.00000,199.77914
426.00000,144.64622
428.00000,136.24615
430.00000,113.49434
432.00000,164.62509
434.00000,195.09427
436.00000,149.02769
438.00000,144.34871
440.00000,151.50606
442.00000,131.70711
444.00000,94.37316
446.00000,81.97894
448.00000,113.89009
450.00000,138.03395
452.00000,133.16734
454.00000,136.35817
456.00000,190.39320
458.00000,254.39125
460.00000,298.27759
462.00000,293.02463
464.00000,274.56238
466.00000,356.63254
468.00000,309.78885
470.00000,247.06180
472.00000,293.94434
474.00000,251.00972
476.00000,247.73494
478.00000,253.40659
480.00000,223.83588
482.00000,203.49377
484.00000,202.36676
486.00000,223.98303
488.00000,253.98030
490.00000,265.36737
492.00000,249.62755
494.00000,252.29982
496.00000,252.42033
498.00000,244.77043
500.00000,254.39627
502.00000,242.40688
504.00000,224.56345
506.00000,220.60014
508.00000,220.63696
510.00000,200.44926
512.00000,171.17441
514.00000,146.82899
516.00000,140.14957
518.00000,160.84210
520.00000,198.97476
522.00000,211.11201
524.00000,197.62389
526.00000,214.44025
528.00000,298.92285
530.00000,357.96915
532.00000,379.63504
534.00000,403.31851
536.00000,429.03671
538.00000,416.10321
540.00000,388.52335
542.00000,321.00412
544.00000,212.54100
546.00000,189.70804
548.00000,183.98141
550.00000,168.39259
552.00000,163.08220
554.00000,166.07492
556.00000,174.00896
558.00000,195.03409
560.00000,211.39320
562.00000,226.45711
564.00000,303.59747
566.00000,338.43753
568.00000,377.72589
570.00000,442.76361
572.00000,424.81378
574.00000,469.75464
576.00000,422.67453
578.00000,365.34406
580.00000,490.17361
582.00000,467.44873
584.00000,428.39111
586.00000,418.76462
588.00000,396.22470
590.00000,419.49600
592.00000,422.34299
594.00000,403.19086
596.00000,374.64819
598.00000,334.64105
600.00000,320.57913
602.00000,334.04266
604.00000,327.62115
606.00000,290.22034
608.00000,287.95822
610.00000,306.57095
612.00000,302.48782
614.00000,262.26596
616.00000,216.14786
618.00000,197.97520
620.00000,201.40916
622.00000,212.51518
624.00000,211.25771
626.00000,171.45129
628.00000,125.56931
630.00000,146.35382
632.00000,194.63748
634.00000,164.40602
636.00000,154.09535
638.00000,173.90913
640.00000,171.77228
642.00000,140.06693
644.00000,140.55750
646.00000,118.60715
648.00000,123.24738
650.00000,157.25282
652.00000,127.28202
654.00000,115.05563
656.00000,101.89572
658.00000,117.81045
660.00000,193.51350
662.00000,225.24278
664.00000,306.44830
666.00000,390.71002
668.00000,387.92194
670.00000,342.35022
672.00000,333.07971
674.00000,333.19098
676.00000,311.82153
678.00000,279.22656
680.00000,244.83649
682.00000,245.49745
684.00000,251.16800
686.00000,223.99164
688.00000,192.43404
690.00000,187.58812
692.00000,195.50798
694.00000,197.61824
696.00000,189.68001
698.00000,165.82187
700.00000,145.38373
702.00000,136.37163
704.00000,125.73280
706.00000,101.76814
708.00000,89.71182
710.00000,100.38044
712.00000,128.83244
714.00000,153.67310
716.00000,148.57234
718.00000,205.33691
720.00000,275.84479
722.00000,295.39523
724.00000,373.53564
726.00000,505.16367
728.00000,665.96735
730.00000,857.28534
732.00000,1076.44214
734.00000,1272.61597
736.00000,1486.77222
738.00000,1715.50244
740.00000,1933.53333
742.00000,2169.92627
744.00000,2353.55103
746.00000,2458.39136
748.00000,2518.44629
750.00000,2554.75952
752.00000,2511.89282
754.00000,2426.70361
756.00000,2296.95288
758.00000,2087.27563
760.00000,1837.03149
762.00000,1590.26941
764.00000,1361.45398
766.00000,1145.99683
768.00000,944.50122
770.00000,777.99261
772.00000,673.11755
774.00000,608.36548
776.00000,540.76581
778.00000,479.51639
780.00000,447.80826
782.00000,415.95566
784.00000,369.46268
786.00000,350.33258
788.00000,350.59540
790.00000,352.88715
792.00000,339.47083
794.00000,306.48047
796.00000,280.26654
798.00000,277.32169
800.00000,266.95706
802.00000,226.14911
804.00000,186.51321
806.00000,169.55817
808.00000,160.11552
810.00000,152.02281
812.00000,150.06058
814.00000,141.26231
816.00000,206.51816
818.00000,340.03812
820.00000,500.07855
822.00000,723.50153
824.00000,1013.10474
826.00000,1306.82336
828.00000,1530.45337
830.00000,1642.40552
832.00000,1630.97559
834.00000,1480.79041
836.00000,1264.51123
838.00000,1086.31055
840.00000,962.33917
842.00000,842.31055
844.00000,707.33441
846.00000,606.74506
848.00000,576.85071
850.00000,513.83380
852.00000,454.67038
854.00000,457.42819
856.00000,504.69305
858.00000,535.28198
860.00000,583.54651
862.00000,648.30951
864.00000,737.78436
866.00000,859.13025
868.00000,874.51782
870.00000,800.78253
872.00000,704.14514
874.00000,605.91919
876.00000,490.68637
878.00000,357.07947
880.00000,269.64987
882.00000,244.84602
884.00000,210.48822
886.00000,185.07031
888.00000,217.08971
890.00000,251.33829
892.00000,228.41168
894.00000,253.70889
896.00000,250.83484
898.00000,222.28186
900.00000,225.13390
902.00000,242.89687
904.00000,230.92738
906.00000,224.12639
908.00000,232.44290
910.00000,216.46213
912.00000,181.08292
914.00000,157.73825
916.00000,155.41194
918.00000,168.62549
920.00000,191.69243
922.00000,186.29933
924.00000,146.29118
926.00000,115.69183
928.00000,133.72124
930.00000,157.23354
932.00000,164.23376
934.00000,123.35636
936.00000,63.40516
938.00000,81.42020
940.00000,81.95194
942.00000,91.13928
944.00000,105.23391
946.00000,58.42675
948.00000,61.65252
950.00000,93.29354
952.00000,127.56785
954.00000,161.58923
956.00000,172.69385
958.00000,217.26221
960.00000,245.81688
962.00000,236.56146
964.00000,253.78687
966.00000,260.97726
968.00000,244.93115
970.00000,204.17563
972.00000,157.73990
974.00000,149.60512
976.00000,136.99074
978.00000,118.83518
980.00000,105.61716
982.00000,96.44134
984.00000,145.77728
986.00000,149.76689
988.00000,131.84697
990.00000,164.20331
992.00000,105.65048
994.00000,78.52077
996.00000,113.92159
998.00000,122.64553
1000.00000,69.64989
1002.00000,71.03164
1004.00000,73.02477
1006.00000,58.91770
1008.00000,82.30380
1010.00000,86.98460
1012.00000,82.00056
1014.00000,69.63222
1016.00000,56.33791
1018.00000,67.08049
1020.00000,66.47332
1022.00000,99.21520
1024.00000,140.50230
1026.00000,123.72642
1028.00000,142.49838
1030.00000,183.18463
1032.00000,211.69804
1034.00000,212.93413
1036.00000,195.69986
1038.00000,229.43423
1040.00000,212.33186
1042.00000,141.68579
1044.00000,140.14809
1046.00000,122.13599
1048.00000,117.78014
1050.00000,131.07080
1052.00000,130.91127
1054.00000,130.78511
1056.00000,123.89173
1058.00000,95.97369
1060.00000,68.17723
1062.00000,70.86781
1064.00000,62.80399
1066.00000,87.21898
1068.00000,78.42504
1070.00000,22.30727
1072.00000,114.70905
1074.00000,147.03958
1076.00000,133.66536
1078.00000,157.87158
1080.00000,155.31145
1082.00000,129.62674
1084.00000,118.07088
1086.00000,134.51808
1088.00000,155.28459
1090.00000,146.67528
1092.00000,110.12462
1094.00000,99.31208
1096.00000,92.14007
1098.00000,25.84680
1100.00000,79.09284
1102.00000,114.96736
1104.00000,91.63812
1106.00000,113.98395
1108.00000,102.47262
1110.00000,82.23062
1112.00000,105.78807
1114.00000,160.62486
1116.00000,179.89302
1118.00000,179.23048
1120.00000,165.11407
1122.00000,157.22224
1124.00000,174.88733
1126.00000,195.55916
1128.00000,269.99603
1130.00000,288.08701
1132.00000,210.82098
1134.00000,214.49809
1136.00000,163.73706
1138.00000,146.61424
1140.00000,170.45947
1142.00000,110.28383
1144.00000,92.62390
1146.00000,93.46346
1148.00000,102.30444
1150.00000,108.44431
1152.00000,59.29029
1154.00000,93.90652
1156.00000,127.10055
1158.00000,129.21336
1160.00000,181.44925
1162.00000,117.73235
1164.00000,115.23798
1166.00000,180.66681
1168.00000,173.44882
1170.00000,147.63185
1172.00000,144.94907
1174.00000,119.62666
1176.00000,72.86906
1178.00000,82.36012
1180.00000,117.59694
1182.00000,99.23351
1184.00000,64.22248
1186.00000,86.75174
1188.00000,107.84293
1190.00000,95.03368
1192.00000,90.40691
1194.00000,105.10701
1196.00000,95.84828
1198.00000,114.38405
1200.00000,147.04916
1202.00000,174.86967
1204.00000,214.29590
1206.00000,291.42969
1208.00000,413.53214
1210.00000,525.32397
1212.00000,643.52295
1214.00000,889.93616
1216.00000,1232.14954
1218.00000,1547.08606
1220.00000,1838.66418
1222.00000,2143.48047
1224.00000,2302.45483
1226.00000,2407.84937
1228.00000,2382.57471
1230.00000,2167.99243
1232.00000,1939.60083
1234.00000,1677.28394
1236.00000,1379.86768
1238.00000,1096.48474
1240.00000,861.20270
1242.00000,650.30438
1244.00000,528.83826
1246.00000,487.27060
1248.00000,437.65689
1250.00000,345.25656
1252.00000,327.04721
1254.00000,313.34830
1256.00000,254.12418
1258.00000,220.50589
1260.00000,204.54341
1262.00000,174.71002
1264.00000,146.45329
1266.00000,136.70798
1268.00000,122.23675
1270.00000,160.77820
1272.00000,191.83296
1274.00000,230.96550
1276.00000,365.97409
1278.00000,429.64694
1280.00000,435.19662
1282.00000,463.89935
1284.00000,513.90399
1286.00000,489.77429
1288.00000,402.67670
1290.00000,344.07370
1292.00000,316.82947
1294.00000,249.82307
1296.00000,247.99391
1298.00000,229.12909
1300.00000,168.47722
1302.00000,134.32581
1304.00000,122.13410
1306.00000,148.56166
1308.00000,159.17767
1310.00000,129.02776
1312.00000,128.26012
1314.00000,170.42548
1316.00000,142.50165
1318.00000,111.27287
1320.00000,167.45149
1322.00000,96.22987
1324.00000,97.54690
1326.00000,114.75558
1328.00000,52.93612
1330.00000,71.23531
1332.00000,92.84743
1334.00000,76.19812
1336.00000,56.79649
1338.00000,75.46739
1340.00000,102.46689
1342.00000,84.82479
1344.00000,51.65081
1346.00000,49.86145
1348.00000,57.50689
1350.00000,53.77165
1352.00000,46.17212
1354.00000,71.14752
1356.00000,141.79497
1358.00000,186.63397
1360.00000,178.57877
1362.00000,181.17578
1364.00000,214.09869
1366.00000,191.02921
1368.00000,202.05496
1370.00000,207.56590
1372.00000,172.95920
1374.00000,141.86386
1376.00000,84.78863
1378.00000,70.87585
1380.00000,111.21539
1382.00000,133.10693
1384.00000,98.85915
1386.00000,105.14902
1388.00000,121.28497
1390.00000,102.91671
1392.00000,92.23611
1394.00000,102.04935
1396.00000,142.06969
1398.00000,181.37714
1400.00000,165.42880
1402.00000,101.49329
1404.00000,133.35899
1406.00000,148.34622
1408.00000,84.51775
1410.00000,84.98030
1412.00000,48.56281
1414.00000,48.51035
1416.00000,69.05714
1418.00000,35.63207
1420.00000,57.74961
1422.00000,81.87759
1424.00000,74.43893
1426.00000,50.41059
1428.00000,37.20368
1430.00000,87.44659
1432.00000,134.47025
1434.00000,134.93367
1436.00000,143.46407
1438.00000,222.21521
1440.00000,290.63367
1442.00000,339.86923
1444.00000,433.42938
1446.00000,563.00708
1448.00000,569.45551
1450.00000,569.35992
1452.00000,643.91730
1454.00000,667.50134
1456.00000,564.83954
1458.00000,617.53888
1460.00000,657.66663
1462.00000,554.88568
1464.00000,661.17676
1466.00000,569.18463
1468.00000,523.64874
1470.00000,640.35553
1472.00000,622.70209
1474.00000,653.45203
1476.00000,645.44073
1478.00000,600.35175
1480.00000,588.07922
1482.00000,528.19171
1484.00000,421.39828
1486.00000,293.29141
1488.00000,203.04816
1490.00000,196.25107
1492.00000,194.78090
1494.00000,181.45143
1496.00000,164.00888
1498.00000,149.24466
1500.00000,147.16055
1502.00000,147.78830
1504.00000,157.36905
1506.00000,140.91695
1508.00000,68.84869
1510.00000,83.77640
1512.00000,143.18460
1514.00000,142.29637
1516.00000,104.02212
1518.00000,163.01711
1520.00000,124.13982
1522.00000,57.74648
1524.00000,84.53091
1526.00000,100.75407
1528.00000,69.63387
1530.00000,52.11860
1532.00000,66.03317
1534.00000,81.47099
1536.00000,113.15592
1538.00000,120.44839
1540.00000,97.17815
1542.00000,85.34246
1544.00000,116.29768
1546.00000,136.70145
1548.00000,111.87600
1550.00000,115.25042
1552.00000,193.61024
1554.00000,194.60675
1556.00000,232.96477
1558.00000,238.11006
1560.00000,155.20253
1562.00000,164.19751
1564.00000,136.80658
1566.00000,94.47678
1568.00000,100.10766
1570.00000,112.87886
1572.00000,74.99498
1574.00000,141.26018
1576.00000,186.49677
1578.00000,109.14550
1580.00000,156.84746
1582.00000,139.01395
1584.00000,96.64838
1586.00000,115.71132
1588.00000,137.38316
1590.00000,151.97945
1592.00000,178.54129
1594.00000,196.64890
1596.00000,185.06088
1598.00000,172.50423
1600.00000,138.03004
1602.00000,116.32072
1604.00000,136.88904
1606.00000,162.18155
1608.00000,142.79182
1610.00000,143.94653
1612.00000,175.73244
1614.00000,198.39983
1616.00000,217.90375
1618.00000,155.02951
1620.00000,138.05644
1622.00000,167.03488
1624.00000,74.04039
1626.00000,137.35773
1628.00000,170.42641
1630.00000,123.55200
1632.00000,151.82147
1634.00000,154.07915
1636.00000,116.10362
1638.00000,99.67891
1640.00000,112.27649
1642.00000,103.56075
1644.00000,160.06201
1646.00000,183.44925
1648.00000,144.27257
1650.00000,139.01285
1652.00000,160.32693
1654.00000,96.83311
1656.00000,24.03944
1658.00000,58.50377
1660.00000,128.62799
1662.00000,101.78776
1664.00000,72.75089
1666.00000,99.31444
1668.00000,117.95889
1670.00000,135.44798
1672.00000,84.52676
1674.00000,70.77895
1676.00000,144.48236
1678.00000,124.80668
1680.00000,127.18541
1682.00000,167.68382
1684.00000,197.25967
1686.00000,197.44382
1688.00000,168.86179
1690.00000,180.13426
1692.00000,200.01955
1694.00000,164.42958
1696.00000,122.88340
1698.00000,135.24727
1700.00000,153.60397
1702.00000,121.10055
1704.00000,67.47369
1706.00000,69.57816
1708.00000,90.54705
1710.00000,90.55566
1712.00000,96.65858
1714.00000,146.90781
1716.00000,131.05008
1718.00000,123.69653
1720.00000,190.79269
1722.00000,215.04120
1724.00000,113.05055
1726.00000,91.42316
1728.00000,152.56210
1730.00000,155.77318
1732.00000,188.09630
1734.00000,158.56099
1736.00000,135.24550
1738.00000,153.36711
1740.00000,97.03249
1742.00000,63.68355
1744.00000,81.93742
1746.00000,130.43385
1748.00000,160.63567
1750.00000,121.03985
1752.00000,173.49890
1754.00000,189.58801
1756.00000,104.34453
1758.00000,144.29355
1760.00000,130.99300
1762.00000,105.85670
1764.00000,134.50917
1766.00000,151.37782
1768.00000,106.51965
1770.00000,103.65930
1772.00000,165.54277
1774.00000,181.24507
1776.00000,76.27455
1778.00000,69.87704
1780.00000,144.46574
1782.00000,163.98174
1784.00000,121.18389
1786.00000,156.79250
1788.00000,99.85943
1790.00000,72.79778
1792.00000,169.40720
1794.00000,95.41695
1796.00000,105.02887
1798.00000,161.68071
1800.00000,134.75938
1802.00000,85.48367
1804.00000,119.28970
1806.00000,130.41322
1808.00000,127.63764
1810.00000,151.71812
1812.00000,113.30255
1814.00000,218.25468
1816.00000,243.18668
1818.00000,123.83219
1820.00000,154.78990
1822.00000,156.54039
1824.00000,96.02868
1826.00000,55.66305
1828.00000,74.34884
1830.00000,95.08132
1832.00000,136.83644
1834.00000,205.80801
1836.00000,230.68034
1838.00000,159.39760
1840.00000,163.18144
1842.00000,211.22513
1844.00000,214.96097
1846.00000,190.87747
1848.00000,222.95209
1850.00000,183.04303
1852.00000,202.70221
1854.00000,267.88583
1856.00000,106.67247
1858.00000,85.10663
1860.00000,121.00904
1862.00000,124.03770
1864.00000,185.31772
1866.00000,243.39413
1868.00000,218.60757
1870.00000,180.38882
1872.00000,179.15184
1874.00000,162.22781
1876.00000,279.69492
1878.00000,367.76260
1880.00000,337.88208
1882.00000,316.25189
1884.00000,311.98825
1886.00000,268.89209
1888.00000,229.83054
1890.00000,221.68350
1892.00000,200.00871
1894.00000,353.43219
1896.00000,333.76987
1898.00000,200.40909
1900.00000,332.40558
1902.00000,176.50778
1904.00000,170.36897
1906.00000,264.36340
1908.00000,162.81297
1910.00000,199.62788
1912.00000,223.82477
1914.00000,254.38347
1916.00000,269.55731
1918.00000,169.06712
1920.00000,198.34550
1922.00000,143.12733
1924.00000,149.24069
1926.00000,372.49774
1928.00000,335.79742
1930.00000,259.39789
1932.00000,259.73267
1934.00000,229.80144
1936.00000,134.23827
1938.00000,191.23999
1940.00000,122.41212
1942.00000,75.10175
1944.00000,237.75092
1946.00000,54.72824
1948.00000,53.03257
1950.00000,113.39217
1952.00000,82.48226
1954.00000,278.93478
1956.00000,238.61148
1958.00000,190.30545
1960.00000,237.98927
1962.00000,180.45219
1964.00000,134.22676
1966.00000,112.80698
1968.00000,127.05427
1970.00000,196.51849
1972.00000,273.77621
1974.00000,226.33881
1976.00000,210.39104
1978.00000,175.80475
1980.00000,35.74268
1982.00000,213.04216
1984.00000,327.92267
1986.00000,303.40146
1988.00000,299.24765
1990.00000,235.55713
1992.00000,170.53021
1994.00000,243.66087
1996.00000,297.00919
1998.00000,143.65802
2000.00000,334.05585
2002.00000,262.51675
2004.00000,139.47957
2006.00000,290.46368
2008.00000,182.96925
2010.00000,142.23782
2012.00000,261.10385
2014.00000,241.67838
2016.00000,182.27689
2018.00000,162.17871
2020.00000,148.52975
2022.00000,107.90025
2024.00000,95.61549
2026.00000,100.87094
2028.00000,122.77982
2030.00000,129.52913
2032.00000,89.66405
2034.00000,124.97758
2036.00000,96.64945
2038.00000,37.91102
2040.00000,128.63310
2042.00000,155.83998
2044.00000,116.15462
2046.00000,102.20372
2048.00000,127.90245
2050.00000,110.25690
2052.00000,138.51604
2054.00000,144.23486
2056.00000,84.54798
2058.00000,106.09829
2060.00000,117.77921
2062.00000,108.06400
2064.00000,97.69180
2066.00000,71.84128
2068.00000,63.90810
2070.00000,82.67104
2072.00000,110.68006
2074.00000,120.67974
2076.00000,100.23344
2078.00000,96.68951
2080.00000,91.60109
2082.00000,70.05953
2084.00000,104.91412
2086.00000,116.48274
2088.00000,98.21428
2090.00000,111.19898
2092.00000,152.97113
2094.00000,85.03178
2096.00000,53.98595
2098.00000,103.53899
2100.00000,80.75885
2102.00000,82.19450
2104.00000,105.94386
2106.00000,135.58376
2108.00000,167.45512
2110.00000,158.34186
2112.00000,140.41338
2114.00000,114.43590
2116.00000,96.05782
2118.00000,143.93733
2120.00000,136.29008
2122.00000,90.77633
2124.00000,76.90833
2126.00000,75.13004
2128.00000,50.66016
2130.00000,100.02222
2132.00000,166.09372
2134.00000,98.16580
2136.00000,48.73232
2138.00000,47.92022
2140.00000,56.22741
2142.00000,60.70968
2144.00000,93.04100
2146.00000,120.64249
2148.00000,112.10548
2150.00000,93.26811
2152.00000,120.98422
2154.00000,135.43669
2156.00000,71.28821
2158.00000,23.21840
2160.00000,112.26672
2162.00000,83.46870
2164.00000,35.49334
2166.00000,65.47443
2168.00000,98.66830
2170.00000,106.79916
2172.00000,129.21503
2174.00000,137.15082
2176.00000,104.17341
2178.00000,116.19128
2180.00000,178.73347
2182.00000,186.86592
2184.00000,126.27095
2186.00000,133.37662
2188.00000,166.20166
2190.00000,177.01613
2192.00000,174.92519
2194.00000,185.15170
2196.00000,171.73058
2198.00000,165.10031
2200.00000,154.53450
2202.00000,116.50477
2204.00000,115.42579
2206.00000,108.02188
2208.00000,111.92352
2210.00000,144.70052
2212.00000,130.09053
2214.00000,97.47248
2216.00000,80.68343
2218.00000,74.43106
2220.00000,65.60169
2222.00000,97.98943
2224.00000,95.66619
2226.00000,53.83512
2228.00000,57.01640
2230.00000,69.16201
2232.00000,88.99531
2234.00000,111.71085
2236.00000,116.57273
2238.00000,105.53931
2240.00000,135.06061
2242.00000,159.74779
2244.00000,128.12910
2246.00000,95.84615
2248.00000,88.55899
2250.00000,100.84103
2252.00000,101.98654
2254.00000,84.71966
2256.00000,127.15351
2258.00000,140.39156
2260.00000,92.51916
2262.00000,61.87415
2264.00000,59.54885
2266.00000,57.84808
2268.00000,94.14521
2270.00000,142.44606
2272.00000,57.57932
2274.00000,80.73095
2276.00000,146.43579
2278.00000,134.82994
2280.00000,161.48521
2282.00000,132.92877
2284.00000,110.79913
2286.00000,123.87161
2288.00000,97.45300
2290.00000,90.76139
2292.00000,106.25359
2294.00000,88.37266
2296.00000,55.46555
2298.00000,153.83571
2300.00000,193.42798
2302.00000,159.12048
2304.00000,161.57085
2306.00000,155.93938
2308.00000,88.37437
2310.00000,66.81158
2312.00000,136.86971
2314.00000,169.19507
2316.00000,147.05121
2318.00000,116.69753
2320.00000,135.05684
2322.00000,176.41740
2324.00000,93.73581
2326.00000,61.46188
2328.00000,126.45135
2330.00000,145.60315
2332.00000,79.53562
2334.00000,69.38184
2336.00000,100.80467
2338.00000,103.69563
2340.00000,129.19794
2342.00000,174.82970
2344.00000,161.64384
2346.00000,110.03510
2348.00000,122.06454
2350.00000,91.05091
2352.00000,68.11429
2354.00000,74.42647
2356.00000,72.25876
2358.00000,119.20383
2360.00000,98.18941
2362.00000,59.94833
2364.00000,93.10693
2366.00000,67.93290
2368.00000,52.46481
2370.00000,60.76746
2372.00000,55.92015
2374.00000,45.94594
2376.00000,65.61399
2378.00000,70.44091
2380.00000,47.28933
2382.00000,47.30865
2384.00000,65.13106
2386.00000,95.94796
2388.00000,83.80201
2390.00000,33.83051
2392.00000,110.30544
2394.00000,129.92636
2396.00000,67.67041
2398.00000,60.57221
2400.00000,122.84206
2402.00000,110.62264
2404.00000,70.31605
2406.00000,98.34667
2408.00000,144.20573
2410.00000,95.32759
2412.00000,81.60564
2414.00000,126.42039
2416.00000,93.95236
2418.00000,57.44487
2420.00000,104.04735
2422.00000,159.32683
2424.00000,121.80779
2426.00000,81.83923
2428.00000,77.37297
2430.00000,117.85456
2432.00000,154.77818
2434.00000,102.21745
2436.00000,40.12361
2438.00000,94.37756
2440.00000,186.55429
2442.00000,126.98149
2444.00000,107.89811
2446.00000,143.45142
2448.00000,148.66081
2450.00000,112.86232
2452.00000,130.67662
2454.00000,132.95879
2456.00000,128.59525
2458.00000,163.81844
2460.00000,168.78955
2462.00000,161.52917
2464.00000,193.09447
2466.00000,223.10336
2468.00000,156.86943
2470.00000,144.27654
2472.00000,150.61435
2474.00000,133.26797
2476.00000,142.48502
2478.00000,130.91805
2480.00000,120.56496
2482.00000,150.64653
2484.00000,176.18799
2486.00000,79.74363
2488.00000,54.09616
2490.00000,96.96729
2492.00000,91.28889
2494.00000,96.79253
2496.00000,141.03302
2498.00000,175.75313
2500.00000,153.30505
2502.00000,113.15135
2504.00000,167.39566
2506.00000,158.83174
2508.00000,68.35132
2510.00000,70.65018
2512.00000,98.53100
2514.00000,105.46653
2516.00000,108.66605
2518.00000,132.87967
2520.00000,144.08226
2522.00000,93.71957
2524.00000,64.06707
2526.00000,95.33699
2528.00000,77.30562
2530.00000,94.24595
2532.00000,116.25472
2534.00000,114.97955
2536.00000,134.44676
2538.00000,115.07681
2540.00000,130.58905
2542.00000,158.12875
2544.00000,112.54160
2546.00000,113.50394
2548.00000,137.27618
2550.00000,125.51517
2552.00000,101.54720
2554.00000,138.56879
2556.00000,90.97945
2558.00000,48.58772
2560.00000,109.78324
2562.00000,140.02249
2564.00000,121.38905
2566.00000,87.03171
2568.00000,84.24616
2570.00000,125.03635
2572.00000,131.92809
2574.00000,99.04752
2576.00000,83.39088
2578.00000,119.94291
2580.00000,146.30446
2582.00000,107.27914
2584.00000,77.55412
2586.00000,108.08173
2588.00000,93.99728
2590.00000,77.32511
2592.00000,94.12868
2594.00000,118.61993
2596.00000,121.03863
2598.00000,168.80806
2600.00000,145.39537
2602.00000,96.53142
2604.00000,175.38968
2606.00000,163.78906
2608.00000,133.03436
2610.00000,143.17137
2612.00000,147.26942
2614.00000,137.79997
2616.00000,113.34417
2618.00000,124.24074
2620.00000,164.53937
2622.00000,123.73624
2624.00000,40.74161
2626.00000,71.08893
2628.00000,160.62585
2630.00000,110.16216
2632.00000,151.69203
2634.00000,151.98734
2636.00000,86.66554
2638.00000,111.33667
2640.00000,113.23870
2642.00000,129.74059
2644.00000,170.52347
2646.00000,180.30087
2648.00000,145.58539
2650.00000,127.48923
2652.00000,105.64879
2654.00000,82.36187
2656.00000,116.02122
2658.00000,57.44061
2660.00000,19.21510
2662.00000,80.85444
2664.00000,118.59248
2666.00000,95.35531
2668.00000,135.66336
2670.00000,174.71873
2672.00000,87.64374
2674.00000,77.94161
2676.00000,167.64258
2678.00000,189.27827
2680.00000,141.45056
2682.00000,269.92822
2684.00000,193.39668
2686.00000,98.41650
2688.00000,184.65817
2690.00000,167.93315
2692.00000,89.74001
2694.00000,127.37881
2696.00000,197.39682
2698.00000,115.49020
2700.00000,154.29205
2702.00000,215.43436
2704.00000,200.72505
2706.00000,165.24393
2708.00000,157.92168
2710.00000,175.75687
2712.00000,200.34453
2714.00000,207.74776
2716.00000,203.88281
2718.00000,302.16974
2720.00000,317.91757
2722.00000,237.72166
2724.00000,307.60626
2726.00000,303.19904
2728.00000,342.93082
2730.00000,409.22284
2732.00000,348.36319
2734.00000,393.32773
2736.00000,443.77725
2738.00000,381.03436
2740.00000,281.89401
2742.00000,309.18149
2744.00000,273.72922
2746.00000,181.19560
2748.00000,157.14532
2750.00000,179.68646
2752.00000,120.44516
2754.00000,56.54179
2756.00000,90.40009
2758.00000,152.11440
2760.00000,67.53941
2762.00000,45.80579
2764.00000,80.46503
2766.00000,38.53112
2768.00000,167.84276
2770.00000,192.41405
2772.00000,129.85460
2774.00000,135.97519
2776.00000,69.02396
2778.00000,105.10572
2780.00000,188.87033
2782.00000,167.31979
2784.00000,94.57866
2786.00000,191.43813
2788.00000,214.57018
2790.00000,118.18027
2792.00000,152.92220
2794.00000,166.11827
2796.00000,222.46112
2798.00000,272.85431
2800.00000,221.59772
2802.00000,225.13971
2804.00000,261.94629
2806.00000,284.78751
2808.00000,273.90063
2810.00000,230.50215
2812.00000,221.95770
2814.00000,240.56598
2816.00000,256.72137
2818.00000,274.79922
2820.00000,291.74805
2822.00000,315.49896
2824.00000,318.28647
2826.00000,291.81320
2828.00000,342.00507
2830.00000,441.08249
2832.00000,552.68481
2834.00000,660.30811
2836.00000,740.32416
2838.00000,862.45300
2840.00000,970.63989
2842.00000,990.47931
2844.00000,1002.15051
2846.00000,1158.09668
2848.00000,1207.61511
2850.00000,1130.79541
2852.00000,1240.10535
2854.00000,1336.19104
2856.00000,1236.49878
2858.00000,1109.35828
2860.00000,1139.77234
2862.00000,1013.60553
2864.00000,777.33942
2866.00000,689.23218
2868.00000,738.80255
2870.00000,546.25836
2872.00000,382.28604
2874.00000,336.72421
2876.00000,258.00977
2878.00000,108.43715
2880.00000,198.52646
2882.00000,163.54726
2884.00000,47.64328
2886.00000,275.06033
2888.00000,266.64172
2890.00000,210.89961
2892.00000,266.23038
2894.00000,338.10349
2896.00000,466.96170
2898.00000,489.04721
2900.00000,439.24243
2902.00000,485.57916
2904.00000,616.56409
2906.00000,546.23425
2908.00000,546.51697
2910.00000,735.46985
2912.00000,741.99353
2914.00000,652.31360
2916.00000,756.30200
2918.00000,915.16235
2920.00000,813.70856
2922.00000,793.00928
2924.00000,922.64032
2926.00000,1012.61359
2928.00000,978.46393
2930.00000,1056.15552
2932.00000,1219.59631
2934.00000,1265.81580
2936.00000,1199.68115
2938.00000,1300.16089
2940.00000,1453.94946
2942.00000,1535.66614
2944.00000,1612.05420
2946.00000,1789.95483
2948.00000,1870.14136
2950.00000,1984.79907
2952.00000,2129.65967
2954.00000,2207.15527
2956.00000,2422.15820
2958.00000,2507.10669
2960.00000,2504.85571
2962.00000,2599.81665
2964.00000,2620.40039
2966.00000,2514.23218
2968.00000,2400.30054
2970.00000,2290.72949
2972.00000,2088.91260
2974.00000,2086.11694
2976.00000,2083.96826
2978.00000,1877.42615
2980.00000,1610.12830
2982.00000,1478.17712
2984.00000,1299.85474
2986.00000,1150.85620
2988.00000,1156.45129
2990.00000,962.79907
2992.00000,799.56964
2994.00000,766.62115
2996.00000,779.99371
2998.00000,789.81006
3000.00000,633.96545
3002.00000,640.55383
3004.00000,812.73828
3006.00000,735.70282
3008.00000,905.38684
3010.00000,834.40747
3012.00000,601.00800
3014.00000,783.28485
3016.00000,711.61548
3018.00000,577.91418
3020.00000,618.61981
3022.00000,666.76013
3024.00000,498.45764
3026.00000,575.65826
3028.00000,631.19550
3030.00000,456.46500
3032.00000,575.38055
3034.00000,685.69531
3036.00000,609.52661
3038.00000,497.62790
3040.00000,518.24805
3042.00000,434.82410
3044.00000,274.08954
3046.00000,319.98444
3048.00000,553.24115
3050.00000,335.36230
3052.00000,258.35187
3054.00000,255.68158
3056.00000,86.48567
3058.00000,301.71716
3060.00000,207.13052
3062.00000,148.86586
3064.00000,381.04703
3066.00000,254.17982
3068.00000,247.63292
3070.00000,233.41010
3072.00000,94.58248
3074.00000,105.39152
3076.00000,274.14206
3078.00000,266.82047
3080.00000,140.57921
3082.00000,123.18111
3084.00000,8.42927
3086.00000,84.48904
3088.00000,107.74641
3090.00000,2.71390
3092.00000,332.38565
3094.00000,261.99542
3096.00000,104.35109
3098.00000,233.87672
3100.00000,204.60483
3102.00000,137.40506
3104.00000,195.69629
3106.00000,309.88223
3108.00000,267.65030
3110.00000,89.17809
3112.00000,272.27142
3114.00000,408.53906
3116.00000,127.02033
3118.00000,351.15216
3120.00000,415.97110
3122.00000,244.48605
3124.00000,137.87990
3126.00000,5.68292
3128.00000,105.40505
3130.00000,408.82324
3132.00000,575.65839
3134.00000,401.05246
3136.00000,356.38861
3138.00000,620.36377
3140.00000,665.98560
3142.00000,356.81107
3144.00000,859.11285
3146.00000,473.81918
3148.00000,84.07262
3150.00000,790.68176
3152.00000,326.56812
3154.00000,151.82675
3156.00000,392.63776
3158.00000,288.87561
3160.00000,68.81028
3162.00000,314.58850
3164.00000,451.75165
3166.00000,182.49400
3168.00000,112.61847
3170.00000,479.12900
3172.00000,320.56644
3174.00000,11.04592
3176.00000,314.89035
3178.00000,77.87894
3180.00000,98.70475
3182.00000,220.16891
3184.00000,55.73050
3186.00000,292.34833
3188.00000,181.21487
3190.00000,-50.16174
3192.00000,11.70255
3194.00000,70.73333
3196.00000,22.25432
3198.00000,203.24574
3200.00000,358.37418
